#"+ BPC Scan unstir_75_Ecoli-r007.d "
#Point,X(Minutes),Y(Counts)
0,0.058,0.163356495522711
1,0.075,0.117112193481355
2,0.091,0.146540385689491
3,0.108,0.193385263082033
4,0.125,0.111707015320677
5,0.141,0.111106439969491
6,0.158,0.107502987862372
7,0.175,0.180172605355931
8,0.191,0.151945563850168
9,0.208,0.147140961040677
10,0.224,0.127321974451525
11,0.241,0.0954914808386434
12,0.258,0.163957070873897
13,0.274,0.0798765217077961
14,0.291,0.141735782879999
15,0.308,0.162155344820338
16,0.324,0.15675016665966
17,0.341,0.188580660272541
18,0.358,0.10450011110644
19,0.374,0.0966926315410163
20,0.391,0.0780747956542368
21,0.407,0.135129454016948
22,0.424,0.142336358231185
23,0.441,0.109905289267118
24,0.457,0.0858822752196604
25,0.474,0.116511618130169
26,0.491,0.0768736449518639
27,0.507,0.0798765217077961
28,0.524,0.0924886040827112
29,0.541,0.136330604719321
30,0.557,0.169962824385762
31,0.574,0.149543262445423
32,0.590,0.0978937822433892
33,0.607,0.148942687094236
34,0.624,0.109905289267118
35,0.640,0.075672494249491
36,0.657,0.133327727963389
37,0.674,0.103899535755254
38,0.690,0.188580660272541
39,0.707,0.185577783516609
40,0.723,0.109304713915931
41,0.740,0.159152468064406
42,0.757,0.201192742647456
43,0.773,0.122517371642033
44,0.790,0.124319097695592
45,0.807,0.111707015320677
46,0.823,0.159753043415592
47,0.840,0.168761673683389
48,0.857,0.133928303314575
49,0.873,0.0954914808386434
50,0.890,0.198790441242711
51,0.906,0.174767427195253
52,0.923,0.142936933582372
53,0.940,0.0972932068922027
54,0.956,0.0840805491661011
55,0.973,0.0858822752196604
56,0.990,0.276865236896947
57,1.006,0.137531755421694
58,1.023,0.103298960404067
59,1.040,0.143537508933558
60,1.056,0.11290816602305
61,1.073,0.118913919534914
62,1.089,0.189781810974914
63,1.106,0.152546139201355
64,1.123,0.163957070873897
65,1.139,0.137531755421694
66,1.156,0.126120823749152
67,1.173,0.125520248397965
68,1.189,0.136330604719321
69,1.206,0.138732906124067
70,1.222,0.10450011110644
71,1.239,0.123718522344406
72,1.256,0.112307590671864
73,1.272,0.159753043415592
74,1.289,0.126120823749152
75,1.306,0.147140961040677
76,1.322,0.0702673160888131
77,1.339,0.160353618766779
78,1.356,0.116511618130169
79,1.372,0.168161098332202
80,1.389,0.198189865891524
81,1.405,0.111707015320677
82,1.422,0.0882845766244062
83,1.439,0.137531755421694
84,1.455,0.162755920171524
85,1.472,0.137531755421694
86,1.489,0.0978937822433892
87,1.505,0.124919673046779
88,1.522,0.151344988498982
89,1.539,0.103899535755254
90,1.555,0.0870834259220333
91,1.572,0.118913919534914
92,1.588,0.137531755421694
93,1.605,0.0930891794338977
94,1.622,0.130324851207457
95,1.638,0.115310467427796
96,1.655,0.13993405682644
97,1.672,0.0636609872257623
98,1.688,0.115310467427796
99,1.705,0.075672494249491
100,1.721,0.137531755421694
101,1.738,0.109304713915931
102,1.755,0.137531755421694
103,1.771,0.107502987862372
104,1.788,0.0696667407376266
105,1.805,0.133327727963389
106,1.821,0.0954914808386434
107,1.838,0.137531755421694
108,1.855,0.106301837159999
109,1.871,0.138732906124067
110,1.888,0.0822788231125418
111,1.904,0.137531755421694
112,1.921,0.107502987862372
113,1.938,0.20059216729627
114,1.954,0.13152600190983
115,1.971,0.0924886040827112
116,1.988,0.075672494249491
117,2.004,0.144738659635931
118,2.021,0.0906868780291519
119,2.038,0.113508741374237
120,2.054,0.166959947629829
121,2.071,0.156149591308474
122,2.087,0.071468466791186
123,2.104,0.115310467427796
124,2.121,0.193985838433219
125,2.137,0.169362249034575
126,2.154,0.154347865254914
127,2.171,0.208399646861693
128,2.187,0.102097809701694
129,2.204,0.066063288630508
130,2.220,0.10450011110644
131,2.237,0.140534632177626
132,2.254,0.115911042778982
133,2.270,0.137531755421694
134,2.287,0.125520248397965
135,2.304,0.102097809701694
136,2.320,0.154347865254914
137,2.337,0.101497234350508
138,2.354,0.0780747956542368
139,2.370,0.120715645588474
140,2.387,0.120115070237287
141,2.403,0.110505864618304
142,2.420,0.141135207528813
143,2.437,0.111707015320677
144,2.453,0.133327727963389
145,2.470,0.0936897547850841
146,2.487,0.143537508933558
147,2.503,0.181373756058304
148,2.520,0.212603674319999
149,2.537,0.152546139201355
150,2.553,0.130925426558643
151,2.570,0.166959947629829
152,2.586,0.108704138564745
153,2.603,0.137531755421694
154,2.620,0.102097809701694
155,2.636,0.106301837159999
156,2.653,0.106902412511186
157,2.670,0.142936933582372
158,2.686,0.0858822752196604
159,2.703,0.137531755421694
160,2.719,0.233023236260337
161,2.736,0.10450011110644
162,2.753,0.114109316725423
163,2.769,0.123718522344406
164,2.786,0.127321974451525
165,2.803,0.127321974451525
166,2.819,0.0828793984637282
167,2.836,0.143537508933558
168,2.853,0.13813233077288
169,2.869,0.116511618130169
170,2.886,0.162155344820338
171,2.902,0.0798765217077961
172,2.919,0.115911042778982
173,2.936,0.147140961040677
174,2.952,0.163356495522711
175,2.969,0.136330604719321
176,2.986,0.193385263082033
177,3.002,0.0930891794338977
178,3.019,0.111106439969491
179,3.036,0.125520248397965
180,3.052,0.117712768832542
181,3.069,0.125520248397965
182,3.085,0.0846811245172876
183,3.102,0.222212879938982
184,3.119,0.089485727326779
185,3.135,0.0954914808386434
186,3.152,0.141735782879999
187,3.169,0.151945563850168
188,3.185,0.130925426558643
189,3.202,0.221011729236609
190,3.218,0.102097809701694
191,3.235,0.0678650146840673
192,3.252,0.108103563213559
193,3.268,0.121916796290847
194,3.285,0.094890905487457
195,3.302,0.137531755421694
196,3.318,0.0834799738149147
197,3.335,0.0546523569579657
198,3.352,0.103298960404067
199,3.368,0.151344988498982
200,3.385,0.107502987862372
201,3.401,0.144138084284745
202,3.418,0.0690661653864402
203,3.435,0.107502987862372
204,3.451,0.102097809701694
205,3.468,0.126721399100338
206,3.485,0.0912874533803384
207,3.501,0.123117946993219
208,3.518,0.130324851207457
209,3.535,0.137531755421694
210,3.551,0.103298960404067
211,3.568,0.137531755421694
212,3.584,0.125520248397965
213,3.601,0.094890905487457
214,3.618,0.130925426558643
215,3.634,0.190982961677287
216,3.651,0.127321974451525
217,3.668,0.138732906124067
218,3.684,0.121916796290847
219,3.701,0.183175482111863
220,3.717,0.154347865254914
221,3.734,0.125520248397965
222,3.751,0.114709892076609
223,3.767,0.134528878665762
224,3.784,0.0930891794338977
225,3.801,0.12972427585627
226,3.817,0.0636609872257623
227,3.834,0.222212879938982
228,3.851,0.125520248397965
229,3.867,0.145939810338304
230,3.884,0.0534512062555929
231,3.900,0.116511618130169
232,3.917,0.193985838433219
233,3.934,0.0654627132793216
234,3.950,0.106301837159999
235,3.967,0.100896658999321
236,3.984,0.137531755421694
237,4.000,0.108103563213559
238,4.017,0.0918880287315248
239,4.034,0.117712768832542
240,4.050,0.0984943575945756
241,4.067,0.0720690421423724
242,4.083,0.118913919534914
243,4.100,0.13813233077288
244,4.117,0.0960920561898299
245,4.133,0.0924886040827112
246,4.150,0.109304713915931
247,4.167,0.123718522344406
248,4.183,0.0798765217077961
249,4.200,0.0984943575945756
250,4.216,0.145939810338304
251,4.233,0.127321974451525
252,4.250,0.089485727326779
253,4.266,0.10450011110644
254,4.283,0.0762730696006775
255,4.300,0.113508741374237
256,4.316,0.137531755421694
257,4.333,0.137531755421694
258,4.350,0.137531755421694
259,4.366,0.075672494249491
260,4.383,0.0798765217077961
261,4.399,0.132727152612202
262,4.416,0.103899535755254
263,4.433,0.185577783516609
264,4.449,0.116511618130169
265,4.466,0.150143837796609
266,4.483,0.105701261808813
267,4.499,0.157350742010846
268,4.516,0.137531755421694
269,4.533,0.118313344183728
270,4.549,0.0780747956542368
271,4.566,0.160954194117965
272,4.582,0.114709892076609
273,4.599,0.161554769469151
274,4.616,0.151945563850168
275,4.632,0.0738707681959317
276,4.649,0.0930891794338977
277,4.666,0.136931180070508
278,4.682,0.114709892076609
279,4.699,0.130925426558643
280,4.715,0.113508741374237
281,4.732,0.0402385485294913
282,4.749,0.17356627649288
283,4.765,0.190982961677287
284,4.782,0.13993405682644
285,4.799,0.161554769469151
286,4.815,0.23422438696271
287,4.832,0.0900863026779655
288,4.849,0.0558535076603386
289,4.865,0.094890905487457
290,4.882,0.124319097695592
291,4.898,0.0996955082969485
292,4.915,0.0930891794338977
293,4.932,0.103899535755254
294,4.948,0.0828793984637282
295,4.965,0.147741536391863
296,4.982,0.0834799738149147
297,4.998,0.20059216729627
298,5.015,0.106301837159999
299,5.032,0.0780747956542368
300,5.048,0.169362249034575
301,5.065,0.13993405682644
302,5.081,0.111707015320677
303,5.098,0.156149591308474
304,5.115,0.0612586858210165
305,5.131,0.144738659635931
306,5.148,0.153747289903728
307,5.165,0.0864828505708469
308,5.181,0.204796194754575
309,5.198,0.071468466791186
310,5.214,0.0534512062555929
311,5.231,0.0828793984637282
312,5.248,0.0816782477613554
313,5.264,0.15675016665966
314,5.281,0.106301837159999
315,5.298,0.085281699868474
316,5.314,0.0768736449518639
317,5.331,0.0684655900352538
318,5.348,0.108103563213559
319,5.364,0.147741536391863
320,5.381,0.114709892076609
321,5.397,0.13813233077288
322,5.414,0.105701261808813
323,5.431,0.120115070237287
324,5.447,0.25104049679593
325,5.464,0.180172605355931
326,5.481,0.094890905487457
327,5.497,0.130324851207457
328,5.514,0.148942687094236
329,5.531,0.0780747956542368
330,5.547,0.154948440606101
331,5.564,0.0768736449518639
332,5.580,0.143537508933558
333,5.597,0.208399646861693
334,5.614,0.128523125153897
335,5.630,0.126721399100338
336,5.647,0.0792759463566096
337,5.664,0.128523125153897
338,5.680,0.133928303314575
339,5.697,0.0786753710054232
340,5.713,0.162755920171524
341,5.730,0.136931180070508
342,5.747,0.132126577261016
343,5.763,0.0834799738149147
344,5.780,0.100296083648135
345,5.797,0.0942903301362705
346,5.813,0.127321974451525
347,5.830,0.143537508933558
348,5.847,0.089485727326779
349,5.863,0.075672494249491
350,5.880,0.0786753710054232
351,5.896,0.141735782879999
352,5.913,0.0684655900352538
353,5.930,0.162155344820338
354,5.946,0.094890905487457
355,5.963,0.0720690421423724
356,5.980,0.0846811245172876
357,5.996,0.099094932945762
358,6.013,0.13813233077288
359,6.030,0.108704138564745
360,6.046,0.149543262445423
361,6.063,0.112307590671864
362,6.079,0.113508741374237
363,6.096,0.0576552337138979
364,6.113,0.154948440606101
365,6.129,0.215606551075931
366,6.146,0.137531755421694
367,6.163,0.109905289267118
368,6.179,0.134528878665762
369,6.196,0.0726696174935588
370,6.212,0.0864828505708469
371,6.229,0.0996955082969485
372,6.246,0.13993405682644
373,6.262,0.123718522344406
374,6.279,0.141735782879999
375,6.296,0.105100686457626
376,6.312,0.089485727326779
377,6.329,0.0726696174935588
378,6.346,0.0870834259220333
379,6.362,0.0876840012732197
380,6.379,0.14834211174305
381,6.395,0.130324851207457
382,6.412,0.207799071510507
383,6.429,0.178370879302372
384,6.445,0.120115070237287
385,6.462,0.0732701928447453
386,6.479,0.128523125153897
387,6.495,0.117712768832542
388,6.512,0.0552529323091522
389,6.529,0.0882845766244062
390,6.545,0.161554769469151
391,6.562,0.144138084284745
392,6.578,0.137531755421694
393,6.595,0.195787564486778
394,6.612,0.0864828505708469
395,6.628,0.0684655900352538
396,6.645,0.150744413147796
397,6.662,0.137531755421694
398,6.678,0.0750719188983046
399,6.695,0.100896658999321
400,6.711,0.110505864618304
401,6.728,0.112307590671864
402,6.745,0.0954914808386434
403,6.761,0.0768736449518639
404,6.778,0.0720690421423724
405,6.795,0.0762730696006775
406,6.811,0.105100686457626
407,6.828,0.0996955082969485
408,6.845,0.15675016665966
409,6.861,0.120715645588474
410,6.878,0.100296083648135
411,6.894,0.0966926315410163
412,6.911,0.0882845766244062
413,6.928,0.0936897547850841
414,6.944,0.141135207528813
415,6.961,0.121916796290847
416,6.978,0.155549015957287
417,6.994,0.16515822157627
418,7.011,0.139333481475253
419,7.028,0.189181235623728
420,7.044,0.13813233077288
421,7.061,0.166359372278643
422,7.077,0.151344988498982
423,7.094,0.0912874533803384
424,7.111,0.137531755421694
425,7.127,0.103899535755254
426,7.144,0.137531755421694
427,7.161,0.137531755421694
428,7.177,0.123117946993219
429,7.194,0.105100686457626
430,7.210,0.126120823749152
431,7.227,0.137531755421694
432,7.244,0.207198496159321
433,7.260,0.101497234350508
434,7.277,0.13993405682644
435,7.294,0.201192742647456
436,7.310,0.117112193481355
437,7.327,0.130925426558643
438,7.344,0.130925426558643
439,7.360,0.166359372278643
440,7.377,0.137531755421694
441,7.393,0.237227263718642
442,7.410,0.219210003183049
443,7.427,0.145339234987118
444,7.443,0.144138084284745
445,7.460,0.0774742203030503
446,7.477,0.150744413147796
447,7.493,0.143537508933558
448,7.510,0.13152600190983
449,7.527,0.162155344820338
450,7.543,0.147741536391863
451,7.560,0.193385263082033
452,7.576,0.115310467427796
453,7.593,0.126721399100338
454,7.610,0.130324851207457
455,7.626,0.143537508933558
456,7.643,0.0816782477613554
457,7.660,0.169362249034575
458,7.676,0.138732906124067
459,7.693,0.130324851207457
460,7.709,0.133327727963389
461,7.726,0.148942687094236
462,7.743,0.105701261808813
463,7.759,0.14834211174305
464,7.776,0.166959947629829
465,7.793,0.146540385689491
466,7.809,0.11290816602305
467,7.826,0.137531755421694
468,7.843,0.132126577261016
469,7.859,0.196388139837965
470,7.876,0.138732906124067
471,7.892,0.135129454016948
472,7.909,0.210801948266439
473,7.926,0.0828793984637282
474,7.942,0.125520248397965
475,7.959,0.198790441242711
476,7.976,0.138732906124067
477,7.992,0.242031866528134
478,8.009,0.112307590671864
479,8.026,0.109905289267118
480,8.042,0.136931180070508
481,8.059,0.134528878665762
482,8.075,0.111106439969491
483,8.092,0.196988715189151
484,8.109,0.120115070237287
485,8.125,0.0834799738149147
486,8.142,0.139333481475253
487,8.159,0.139333481475253
488,8.175,0.137531755421694
489,8.192,0.109304713915931
490,8.208,0.195787564486778
491,8.225,0.128523125153897
492,8.242,0.0546523569579657
493,8.258,0.118313344183728
494,8.275,0.117712768832542
495,8.292,0.123718522344406
496,8.308,0.0762730696006775
497,8.325,0.137531755421694
498,8.342,0.174166851844067
499,8.358,0.175968577897626
500,8.375,0.102698385052881
501,8.391,0.0954914808386434
502,8.408,0.130925426558643
503,8.425,0.199391016593897
504,8.441,0.105100686457626
505,8.458,0.0888851519755926
506,8.475,0.116511618130169
507,8.491,0.0864828505708469
508,8.508,0.111707015320677
509,8.524,0.137531755421694
510,8.541,0.213204249671185
511,8.558,0.187980084921355
512,8.574,0.0870834259220333
513,8.591,0.137531755421694
514,8.608,0.0762730696006775
515,8.624,0.2612502777661
516,8.641,0.136931180070508
517,8.658,0.119514494886101
518,8.674,0.184977208165422
519,8.691,0.15675016665966
520,8.707,0.227618058099659
521,8.724,0.130324851207457
522,8.741,0.0768736449518639
523,8.757,0.0492471787972878
524,8.774,0.0912874533803384
525,8.791,0.0492471787972878
526,8.807,0.0666638639816945
527,8.824,0.0654627132793216
528,8.841,0.166959947629829
529,8.857,0.0804770970589825
530,8.874,0.115911042778982
531,8.890,0.0264253154522032
532,8.907,0.154948440606101
533,8.924,0.110505864618304
534,8.940,0.0906868780291519
535,8.957,0.0834799738149147
536,8.974,0.0912874533803384
537,8.990,0.122517371642033
538,9.007,0.145339234987118
539,9.024,0.137531755421694
540,9.040,0.160954194117965
541,9.057,0.0486466034461014
542,9.073,0.18197433140949
543,9.090,0.0666638639816945
544,9.107,0.121916796290847
545,9.123,0.106902412511186
546,9.140,0.0588563844162708
547,9.157,0.0720690421423724
548,9.173,0.0966926315410163
549,9.190,0.0480460280949149
550,9.207,0.0900863026779655
551,9.223,0.106301837159999
552,9.240,0.0780747956542368
553,9.256,0.0624598365233894
554,9.273,0.100296083648135
555,9.290,0.0372356717735591
556,9.306,0.137531755421694
557,9.323,0.0402385485294913
558,9.340,0.142336358231185
559,9.356,0.089485727326779
560,9.373,0.056454083011525
561,9.389,0.0372356717735591
562,9.406,0.10450011110644
563,9.423,0.0528506309044064
564,9.439,0.0744713435471181
565,9.456,0.218008852480676
566,9.473,0.0342327950176269
567,9.489,0.12131622093966
568,9.506,0.137531755421694
569,9.523,0.0438420006366099
570,9.539,0.05225005555322
571,9.556,0.033031644315254
572,9.572,0.0570546583627115
573,9.589,0.109905289267118
574,9.606,0.111707015320677
575,9.622,0.0654627132793216
576,9.639,0.132126577261016
577,9.656,0.0702673160888131
578,9.672,0.0702673160888131
579,9.689,0.0720690421423724
580,9.706,0.109905289267118
581,9.722,0.102097809701694
582,9.739,0.0930891794338977
583,9.755,0.0726696174935588
584,9.772,0.0780747956542368
585,9.789,0.0858822752196604
586,9.805,0.0384368224759319
587,9.822,0.0546523569579657
588,9.839,0.0786753710054232
589,9.855,0.0552529323091522
590,9.872,0.130925426558643
591,9.888,0.0672644393328809
592,9.905,0.0528506309044064
593,9.922,0.282870990408812
594,9.938,0.0456437266901692
595,9.955,0.066063288630508
596,9.972,0.0504483294996607
597,9.988,0.124919673046779
598,10.005,0.0360345210711862
599,10.022,0.0504483294996607
600,10.038,0.0708678914399995
601,10.055,0.0300287675593218
602,10.071,0.0624598365233894
603,10.088,0.0576552337138979
604,10.105,0.066063288630508
605,10.121,0.159753043415592
606,10.138,0.0480460280949149
607,10.155,0.0606581104698301
608,10.171,0.114109316725423
609,10.188,0.0576552337138979
610,10.205,0.168761673683389
611,10.221,0.0414396992318641
612,10.238,0.0390373978271184
613,10.254,0.033031644315254
614,10.271,0.0864828505708469
615,10.288,0.0954914808386434
616,10.304,0.135129454016948
617,10.321,0.0588563844162708
618,10.338,0.056454083011525
619,10.354,0.150744413147796
620,10.371,0.161554769469151
621,10.387,0.019218411237966
622,10.404,0.165758796927456
623,10.421,0.0270258908033896
624,10.437,0.103899535755254
625,10.454,0.142936933582372
626,10.471,0.137531755421694
627,10.487,0.0684655900352538
628,10.504,0.141735782879999
629,10.521,0.0228218633450846
630,10.537,0.0270258908033896
631,10.554,0.12131622093966
632,10.570,0.0690661653864402
633,10.587,0.0408391238806777
634,10.604,0.0570546583627115
635,10.620,0.127922549802711
636,10.637,0.111106439969491
637,10.654,0.0360345210711862
638,10.670,0.0582558090650843
639,10.687,0.0780747956542368
640,10.704,0.033031644315254
641,10.720,0.0690661653864402
642,10.737,0.0498477541484742
643,10.753,0.0498477541484742
644,10.770,0.0822788231125418
645,10.787,0.0390373978271184
646,10.803,0.0180172605355931
647,10.820,0.0282270415057625
648,10.837,0.0366350964223726
649,10.853,0.0648621379281352
650,10.870,0.028827616856949
651,10.886,0.0228218633450846
652,10.903,0.0498477541484742
653,10.920,0.061859261172203
654,10.936,0.0672644393328809
655,10.953,0.0198189865891524
656,10.970,0.0624598365233894
657,10.986,0.0384368224759319
658,11.003,0.0432414252854234
659,11.020,0.0630604118745758
660,11.036,0.114109316725423
661,11.053,0.0282270415057625
662,11.069,0.0648621379281352
663,11.086,0.0204195619403388
664,11.103,0.136931180070508
665,11.119,0.102698385052881
666,11.136,0.133928303314575
667,11.153,0.0810776724101689
668,11.169,0
669,11.186,0.0918880287315248
670,11.203,0.105701261808813
671,11.219,0.0708678914399995
672,11.236,0.0702673160888131
673,11.252,0.0342327950176269
674,11.269,0.0252241647498303
675,11.286,0.150744413147796
676,11.302,0.071468466791186
677,11.319,0.0498477541484742
678,11.336,0.0414396992318641
679,11.352,0.0366350964223726
680,11.369,0.0390373978271184
681,11.385,0.0816782477613554
682,11.402,0.0702673160888131
683,11.419,0.0528506309044064
684,11.435,0.117712768832542
685,11.452,0.0216207126427117
686,11.469,0.0732701928447453
687,11.485,0.0324310689640676
688,11.502,0.0270258908033896
689,11.519,0.0702673160888131
690,11.535,0.0456437266901692
691,11.552,0.0672644393328809
692,11.568,0.00960920561898299
693,11.585,0.0816782477613554
694,11.602,0.0240230140474575
695,11.618,0.0762730696006775
696,11.635,0.141735782879999
697,11.652,0.0210201372915253
698,11.668,0.056454083011525
699,11.685,0.028827616856949
700,11.702,0.105701261808813
701,11.718,0.102097809701694
702,11.735,0.0300287675593218
703,11.751,0.0774742203030503
704,11.768,0.0900863026779655
