#"+ BPC Scan nostir_75um_sp-r011.d "
#Point,X(Minutes),Y(Counts)
0,0.057,542
1,0.074,562
2,0.090,625
3,0.107,452
4,0.124,509
5,0.140,399
6,0.157,480
7,0.173,710
8,0.190,504
9,0.207,402
10,0.223,611
11,0.240,529
12,0.257,368
13,0.273,580
14,0.290,484
15,0.307,510
16,0.323,451
17,0.340,510
18,0.356,492
19,0.373,425
20,0.390,565
21,0.406,462
22,0.423,390
23,0.440,486
24,0.456,510
25,0.473,741
26,0.489,465
27,0.506,386
28,0.523,348
29,0.539,503
30,0.556,495
31,0.573,510
32,0.589,583
33,0.606,406
34,0.623,529
35,0.639,513
36,0.656,510
37,0.672,408
38,0.689,475
39,0.706,465
40,0.722,556
41,0.739,456
42,0.756,374
43,0.772,521
44,0.789,543
45,0.806,359
46,0.822,376
47,0.839,574
48,0.855,568
49,0.872,470
50,0.889,413
51,0.905,510
52,0.922,513
53,0.939,510
54,0.955,526
55,0.972,516
56,0.988,413
57,1.005,431
58,1.022,392
59,1.038,365
60,1.055,495
61,1.072,582
62,1.088,424
63,1.105,428
64,1.122,750
65,1.138,425
66,1.155,451
67,1.171,430
68,1.188,459
69,1.205,324
70,1.221,503
71,1.238,393
72,1.255,395
73,1.271,546
74,1.288,450
75,1.305,376
76,1.321,370
77,1.338,443
78,1.354,398
79,1.371,425
80,1.388,429
81,1.404,409
82,1.421,565
83,1.438,510
84,1.454,496
85,1.471,380
86,1.487,458
87,1.504,508
88,1.521,515
89,1.537,510
90,1.554,505
91,1.571,364
92,1.587,753
93,1.604,382
94,1.621,379
95,1.637,399
96,1.654,515
97,1.670,567
98,1.687,615
99,1.704,470
100,1.720,579
101,1.737,397
102,1.754,390
103,1.770,536
104,1.787,826
105,1.804,510
106,1.820,760
107,1.837,580
108,1.853,466
109,1.870,496
110,1.887,655
111,1.903,572
112,1.920,440
113,1.937,432
114,1.953,434
115,1.970,504
116,1.986,526
117,2.003,532
118,2.020,551
119,2.036,457
120,2.053,578
121,2.070,572
122,2.086,510
123,2.103,323
124,2.120,388
125,2.136,656
126,2.153,416
127,2.169,1033
128,2.186,602
129,2.203,355
130,2.219,418
131,2.236,357
132,2.253,443
133,2.269,444
134,2.286,405
135,2.303,537
136,2.319,473
137,2.336,432
138,2.352,446
139,2.369,495
140,2.386,404
141,2.402,563
142,2.419,463
143,2.436,665
144,2.452,591
145,2.469,412
146,2.485,478
147,2.502,466
148,2.519,477
149,2.535,462
150,2.552,593
151,2.569,510
152,2.585,401
153,2.602,570
154,2.619,508
155,2.635,427
156,2.652,347
157,2.668,582
158,2.685,537
159,2.702,610
160,2.718,562
161,2.735,742
162,2.752,434
163,2.768,362
164,2.785,545
165,2.802,664
166,2.818,578
167,2.835,480
168,2.851,422
169,2.868,765
170,2.885,561
171,2.901,519
172,2.918,770
173,2.935,388
174,2.951,450
175,2.968,364
176,2.984,526
177,3.001,574
178,3.018,488
179,3.034,388
180,3.051,512
181,3.068,689
182,3.084,501
183,3.101,501
184,3.118,361
185,3.134,477
186,3.151,375
187,3.167,395
188,3.184,486
189,3.201,569
190,3.217,483
191,3.234,401
192,3.251,602
193,3.267,477
194,3.284,519
195,3.301,434
196,3.317,523
197,3.334,466
198,3.350,458
199,3.367,538
200,3.384,620
201,3.400,606
202,3.417,490
203,3.434,498
204,3.450,722
205,3.467,442
206,3.483,351
207,3.500,438
208,3.517,740
209,3.533,498
210,3.550,537
211,3.567,510
212,3.583,529
213,3.600,506
214,3.617,511
215,3.633,632
216,3.650,518
217,3.666,537
218,3.683,468
219,3.700,693
220,3.716,510
221,3.733,559
222,3.750,610
223,3.766,452
224,3.783,552
225,3.800,591
226,3.816,519
227,3.833,732
228,3.849,401
229,3.866,504
230,3.883,535
231,3.899,374
232,3.916,371
233,3.933,519
234,3.949,411
235,3.966,454
236,3.982,475
237,3.999,647
238,4.016,590
239,4.032,514
240,4.049,437
241,4.066,492
242,4.082,847
243,4.099,436
244,4.116,496
245,4.132,510
246,4.149,427
247,4.165,427
248,4.182,539
249,4.199,757
250,4.215,503
251,4.232,560
252,4.249,345
253,4.265,495
254,4.282,560
255,4.299,590
256,4.315,593
257,4.332,346
258,4.348,448
259,4.365,511
260,4.382,647
261,4.398,515
262,4.415,505
263,4.432,358
264,4.448,514
265,4.465,448
266,4.481,453
267,4.498,510
268,4.515,552
269,4.531,411
270,4.548,620
271,4.565,340
272,4.581,335
273,4.598,427
274,4.615,476
275,4.631,716
276,4.648,1030
277,4.664,591
278,4.681,424
279,4.698,555
280,4.714,499
281,4.731,373
282,4.748,327
283,4.764,477
284,4.781,716
285,4.798,383
286,4.814,570
287,4.831,558
288,4.847,497
289,4.864,447
290,4.881,368
291,4.897,518
292,4.914,368
293,4.931,432
294,4.947,433
295,4.964,703
296,4.980,388
297,4.997,458
298,5.014,359
299,5.030,575
300,5.047,510
301,5.064,471
302,5.080,503
303,5.097,551
304,5.114,426
305,5.130,503
306,5.147,346
307,5.163,583
308,5.180,420
309,5.197,694
310,5.213,490
311,5.230,619
312,5.247,414
313,5.263,558
314,5.280,508
315,5.297,406
316,5.313,353
317,5.330,476
318,5.346,409
319,5.363,488
320,5.380,476
321,5.396,405
322,5.413,353
323,5.430,690
324,5.446,579
325,5.463,510
326,5.479,429
327,5.496,587
328,5.513,536
329,5.529,404
330,5.546,579
331,5.563,648
332,5.579,438
333,5.596,385
334,5.613,364
335,5.629,593
336,5.646,419
337,5.662,941
338,5.679,444
339,5.696,427
340,5.712,554
341,5.729,530
342,5.746,441
343,5.762,700
344,5.779,425
345,5.795,501
346,5.812,377
347,5.829,410
348,5.845,566
349,5.862,441
350,5.879,386
351,5.895,559
352,5.912,541
353,5.929,516
354,5.945,1028
355,5.962,790
356,5.978,343
357,5.995,511
358,6.012,496
359,6.028,647
360,6.045,510
361,6.062,405
362,6.078,450
363,6.095,513
364,6.112,455
365,6.128,405
366,6.145,505
367,6.161,444
368,6.178,515
369,6.195,740
370,6.211,757
371,6.228,346
372,6.245,465
373,6.261,414
374,6.278,510
375,6.294,694
376,6.311,481
377,6.328,517
378,6.344,499
379,6.361,441
380,6.378,410
381,6.394,660
382,6.411,465
383,6.428,557
384,6.444,542
385,6.461,450
386,6.477,510
387,6.494,771
388,6.511,456
389,6.527,573
390,6.544,491
391,6.561,602
392,6.577,526
393,6.594,510
394,6.611,537
395,6.627,495
396,6.644,510
397,6.660,556
398,6.677,568
399,6.694,617
400,6.710,519
401,6.727,510
402,6.744,688
403,6.760,510
404,6.777,748
405,6.794,558
406,6.810,621
407,6.827,513
408,6.843,562
409,6.860,579
410,6.877,761
411,6.893,739
412,6.910,705
413,6.927,654
414,6.943,693
415,6.960,709
416,6.977,669
417,6.993,687
418,7.010,581
419,7.026,637
420,7.043,765
421,7.060,764
422,7.076,682
423,7.093,724
424,7.110,654
425,7.126,716
426,7.143,617
427,7.159,625
428,7.176,796
429,7.193,775
430,7.209,822
431,7.226,765
432,7.243,969
433,7.259,615
434,7.276,864
435,7.293,672
436,7.309,760
437,7.326,624
438,7.342,687
439,7.359,638
440,7.376,765
441,7.392,542
442,7.409,526
443,7.426,624
444,7.442,560
445,7.459,536
446,7.476,533
447,7.492,510
448,7.509,523
449,7.525,707
450,7.542,478
451,7.559,640
452,7.575,562
453,7.592,545
454,7.609,510
455,7.625,564
456,7.642,524
457,7.658,535
458,7.675,819
459,7.692,419
460,7.708,474
461,7.725,588
462,7.742,604
463,7.758,484
464,7.775,510
465,7.792,563
466,7.808,510
467,7.825,384
468,7.841,426
469,7.858,382
470,7.875,473
471,7.891,510
472,7.908,614
473,7.925,386
474,7.941,510
475,7.958,472
476,7.975,421
477,7.991,365
478,8.008,574
479,8.024,393
480,8.041,640
481,8.058,501
482,8.074,407
483,8.091,396
484,8.108,510
485,8.124,510
486,8.141,642
487,8.157,384
488,8.174,403
489,8.191,510
490,8.207,419
491,8.224,897
492,8.241,510
493,8.257,621
494,8.274,541
495,8.291,501
496,8.307,385
497,8.324,510
498,8.340,510
499,8.357,328
500,8.374,510
501,8.390,495
502,8.407,510
503,8.424,577
504,8.440,392
505,8.457,528
506,8.474,531
507,8.490,461
508,8.507,409
509,8.523,570
510,8.540,574
511,8.557,483
512,8.573,758
513,8.590,614
514,8.607,552
515,8.623,807
516,8.640,964
517,8.656,874
518,8.673,1206
519,8.690,1010
520,8.706,1445
521,8.723,1104
522,8.740,1207
523,8.756,1298
524,8.773,1330
525,8.790,1144
526,8.806,1353
527,8.823,1264
528,8.839,1167
529,8.856,1915
530,8.873,1117
531,8.889,1496
532,8.906,1410
533,8.923,1398
534,8.939,1523
535,8.956,1172
536,8.973,1450
537,8.989,1384
538,9.006,1338
539,9.022,1226
540,9.039,1281
541,9.056,1458
542,9.072,1665
543,9.089,1181
544,9.106,1278
545,9.122,917
546,9.139,997
547,9.155,1092
548,9.172,1012
549,9.189,1326
550,9.205,1393
551,9.222,1229
552,9.239,1119
553,9.255,1589
554,9.272,1055
555,9.289,1062
556,9.305,1035
557,9.322,1092
558,9.338,922
559,9.355,921
560,9.372,1244
561,9.388,817
562,9.405,1119
563,9.422,1118
564,9.438,892
565,9.455,1305
566,9.472,894
567,9.488,1251
568,9.505,989
569,9.521,890
570,9.538,1172
571,9.555,1020
572,9.571,1224
573,9.588,1273
574,9.605,824
575,9.621,817
576,9.638,920
577,9.654,789
578,9.671,997
579,9.688,839
580,9.704,750
581,9.721,907
582,9.738,1078
583,9.754,931
584,9.771,706
585,9.788,1075
586,9.804,710
587,9.821,1113
588,9.837,895
589,9.854,985
590,9.871,816
591,9.887,730
592,9.904,1118
593,9.921,669
594,9.937,1044
595,9.954,1070
596,9.971,773
597,9.987,1169
598,10.004,877
599,10.020,838
600,10.037,681
601,10.054,737
602,10.070,789
603,10.087,656
604,10.104,617
605,10.120,642
606,10.137,765
607,10.153,708
608,10.170,771
609,10.187,1063
610,10.203,787
611,10.220,642
612,10.237,783
613,10.253,764
614,10.270,662
615,10.287,575
616,10.303,660
617,10.320,644
618,10.336,635
619,10.353,765
620,10.370,1130
621,10.386,786
622,10.403,628
623,10.420,673
624,10.436,692
625,10.453,804
626,10.470,687
627,10.486,575
628,10.503,769
629,10.519,535
630,10.536,733
631,10.553,562
632,10.569,606
633,10.586,523
634,10.603,701
635,10.619,907
636,10.636,799
637,10.652,585
638,10.669,588
639,10.686,695
640,10.702,720
641,10.719,672
642,10.736,760
643,10.752,645
644,10.769,624
645,10.786,723
646,10.802,510
647,10.819,539
648,10.835,615
649,10.852,556
650,10.869,550
651,10.885,690
652,10.902,510
653,10.919,634
654,10.935,638
655,10.952,542
656,10.969,634
657,10.985,782
658,11.002,553
659,11.018,510
660,11.035,538
661,11.052,582
662,11.068,673
663,11.085,486
664,11.102,510
665,11.118,636
666,11.135,539
667,11.151,533
668,11.168,706
669,11.185,609
670,11.201,492
671,11.218,523
672,11.235,575
673,11.251,529
674,11.268,689
675,11.285,510
676,11.301,506
677,11.318,555
678,11.334,529
679,11.351,510
680,11.368,544
681,11.384,510
682,11.401,670
683,11.418,551
684,11.434,591
685,11.451,599
686,11.468,526
687,11.484,515
688,11.501,558
689,11.517,510
690,11.534,546
691,11.551,522
692,11.567,576
693,11.584,752
694,11.601,683
695,11.617,563
696,11.634,515
697,11.650,725
698,11.667,553
699,11.684,567
700,11.700,639
701,11.717,558
702,11.734,534
703,11.750,637
704,11.767,706
705,11.784,679
706,11.800,717
707,11.817,604
708,11.833,539
709,11.850,510
710,11.867,510
711,11.883,528
712,11.900,540
713,11.917,482
714,11.933,557
715,11.950,510
716,11.967,637
717,11.983,510
718,12.000,720
719,12.016,776
720,12.033,553
721,12.050,641
722,12.066,590
723,12.083,514
724,12.100,478
725,12.116,544
726,12.133,523
727,12.149,462
728,12.166,883
729,12.183,438
730,12.199,548
731,12.216,620
732,12.233,544
733,12.249,510
734,12.266,391
735,12.283,507
736,12.299,569
737,12.316,639
738,12.332,440
739,12.349,660
740,12.366,679
741,12.382,575
742,12.399,510
743,12.416,433
744,12.432,792
745,12.449,541
746,12.466,572
747,12.482,552
748,12.499,486
749,12.515,535
750,12.532,510
751,12.549,637
752,12.565,548
753,12.582,659
754,12.599,452
755,12.615,535
756,12.632,557
757,12.648,511
758,12.665,510
759,12.682,800
760,12.698,527
761,12.715,499
762,12.732,478
763,12.748,672
764,12.765,765
765,12.782,493
766,12.798,523
767,12.815,444
768,12.831,510
769,12.848,485
770,12.865,537
771,12.881,580
772,12.898,545
773,12.915,575
774,12.931,522
775,12.948,537
776,12.965,510
777,12.981,622
778,12.998,525
779,13.014,550
780,13.031,727
781,13.048,549
782,13.064,510
783,13.081,486
784,13.098,375
785,13.114,510
786,13.131,605
787,13.147,520
788,13.164,534
789,13.181,622
790,13.197,510
791,13.214,467
792,13.231,606
793,13.247,522
794,13.264,548
795,13.281,733
796,13.297,489
797,13.314,482
798,13.330,364
799,13.347,630
800,13.364,385
801,13.380,646
802,13.397,517
803,13.414,510
804,13.430,581
805,13.447,624
806,13.463,555
807,13.480,628
808,13.497,540
809,13.513,570
810,13.530,518
811,13.547,552
812,13.563,527
813,13.580,490
814,13.597,768
815,13.613,561
816,13.630,595
817,13.646,508
818,13.663,556
819,13.680,568
820,13.696,482
821,13.713,838
822,13.730,588
823,13.746,371
824,13.763,530
825,13.780,529
826,13.796,398
827,13.813,510
828,13.829,573
829,13.846,511
830,13.863,542
831,13.879,510
832,13.896,530
833,13.913,785
834,13.929,594
835,13.946,550
836,13.962,479
837,13.979,510
838,13.996,483
839,14.012,370
840,14.029,510
841,14.046,466
842,14.062,413
843,14.079,551
844,14.096,564
845,14.112,504
846,14.129,398
847,14.145,554
848,14.162,560
849,14.179,705
850,14.195,395
851,14.212,380
852,14.229,560
853,14.245,583
854,14.262,619
855,14.279,545
856,14.295,510
857,14.312,510
858,14.328,656
859,14.345,535
860,14.362,599
861,14.378,612
862,14.395,662
863,14.412,444
864,14.428,627
865,14.445,651
866,14.462,933
867,14.478,1795
868,14.495,2348
869,14.511,2980
870,14.528,2468
871,14.545,2167
872,14.561,1753
873,14.578,1847
874,14.595,1471
875,14.611,1873
876,14.628,1236
877,14.645,1076
878,14.661,1031
879,14.678,946
880,14.694,791
881,14.711,761
882,14.728,797
883,14.744,1126
884,14.761,1507
885,14.778,1469
886,14.794,1761
887,14.811,2387
888,14.827,2642
889,14.844,2835
890,14.861,3002
891,14.877,3588
892,14.894,3810
893,14.911,4124
894,14.927,5032
895,14.944,5736
896,14.961,6329
897,14.977,7308
898,14.994,6839
899,15.010,7605
900,15.027,7167
901,15.044,7215
902,15.060,7865
903,15.077,8387
904,15.094,7074
905,15.110,7541
906,15.127,6795
907,15.144,7205
908,15.160,6883
909,15.177,6462
910,15.193,6606
911,15.210,6582
912,15.227,5830
913,15.243,6648
914,15.260,6532
915,15.277,5889
916,15.293,11953
917,15.310,21467
918,15.326,32362
919,15.343,52747
920,15.360,71630
921,15.376,105239
922,15.393,125017
923,15.410,161856
924,15.426,192707
925,15.443,214089
926,15.460,247003
927,15.476,270195
928,15.493,297362
929,15.509,323311
930,15.526,349322
931,15.543,376451
932,15.559,381857
933,15.576,380601
934,15.593,400222
935,15.609,410504
936,15.626,411914
937,15.643,408114
938,15.659,400504
939,15.676,375466
940,15.692,335917
941,15.709,286963
942,15.726,251178
943,15.742,208540
944,15.759,167034
945,15.776,129844
946,15.792,100751
947,15.809,76307
948,15.825,59603
949,15.842,48823
950,15.859,37993
951,15.875,33570
952,15.892,29265
953,15.909,25878
954,15.925,20977
955,15.942,19415
956,15.959,17144
957,15.975,17129
958,15.992,16412
959,16.008,13386
960,16.025,14053
961,16.042,12618
962,16.058,11617
963,16.075,11422
964,16.092,12006
965,16.108,9487
966,16.125,9961
967,16.142,7981
968,16.158,9535
969,16.175,6657
970,16.191,6694
971,16.208,5826
972,16.225,4724
973,16.241,4245
974,16.258,5120
975,16.275,4326
976,16.291,4481
977,16.308,4641
978,16.324,4828
979,16.341,4861
980,16.358,4655
981,16.374,4412
982,16.391,3758
983,16.408,4928
984,16.424,4078
985,16.441,4278
986,16.458,4362
987,16.474,4554
988,16.491,3961
989,16.507,5148
990,16.524,5518
991,16.541,4249
992,16.557,5225
993,16.574,6703
994,16.591,7659
995,16.607,11758
996,16.624,16284
997,16.641,28563
998,16.657,38069
999,16.674,46994
1000,16.690,60262
1001,16.707,60086
1002,16.724,69129
1003,16.740,74375
1004,16.757,85670
1005,16.774,88170
1006,16.790,98893
1007,16.807,111864
1008,16.823,115283
1009,16.840,112667
1010,16.857,113783
1011,16.873,107664
1012,16.890,115014
1013,16.907,122595
1014,16.923,110073
1015,16.940,112556
1016,16.957,102046
1017,16.973,112398
1018,16.990,104795
1019,17.006,99190
1020,17.023,93975
1021,17.040,96881
1022,17.056,85819
1023,17.073,77837
1024,17.090,64808
1025,17.106,60670
1026,17.123,59956
1027,17.140,45353
1028,17.156,45107
1029,17.173,33913
1030,17.189,28769
1031,17.206,18089
1032,17.223,16814
1033,17.239,11964
1034,17.256,11464
1035,17.273,8384
1036,17.289,8124
1037,17.306,7080
1038,17.322,5043
1039,17.339,4987
1040,17.356,3740
1041,17.372,3166
1042,17.389,3383
1043,17.406,3746
1044,17.422,2661
1045,17.439,2646
1046,17.456,2440
1047,17.472,3073
1048,17.489,2842
1049,17.505,2466
1050,17.522,2340
1051,17.539,2521
1052,17.555,2536
1053,17.572,2073
1054,17.589,2551
1055,17.605,2170
1056,17.622,2376
1057,17.639,1899
1058,17.655,1960
1059,17.672,2033
1060,17.688,1886
1061,17.705,2363
1062,17.722,2579
1063,17.738,1824
1064,17.755,1376
1065,17.772,1464
1066,17.788,1907
1067,17.805,1417
1068,17.821,1611
1069,17.838,1935
1070,17.855,1786
1071,17.871,1747
1072,17.888,1733
1073,17.905,2110
1074,17.921,2053
1075,17.938,2140
1076,17.955,2610
1077,17.971,1801
1078,17.988,2174
1079,18.004,1949
1080,18.021,2222
1081,18.038,1943
1082,18.054,3072
1083,18.071,3395
1084,18.088,4315
1085,18.104,7552
1086,18.121,9474
1087,18.138,12621
1088,18.154,18350
1089,18.171,22948
1090,18.187,32297
1091,18.204,33481
1092,18.221,46489
1093,18.237,46483
1094,18.254,51477
1095,18.271,56428
1096,18.287,53894
1097,18.304,59912
1098,18.320,58030
1099,18.337,64148
1100,18.354,63302
1101,18.370,61093
1102,18.387,61032
1103,18.404,62605
1104,18.420,60697
1105,18.437,57108
1106,18.454,53100
1107,18.470,54728
1108,18.487,54066
1109,18.503,49632
1110,18.520,46116
1111,18.537,45732
1112,18.553,47124
1113,18.570,45348
1114,18.587,44104
1115,18.603,37437
1116,18.620,37024
1117,18.637,37567
1118,18.653,32009
1119,18.670,32433
1120,18.686,31155
1121,18.703,28271
1122,18.720,26365
1123,18.736,24328
1124,18.753,19655
1125,18.770,18403
1126,18.786,16169
1127,18.803,16015
1128,18.819,13566
1129,18.836,12147
1130,18.853,11837
1131,18.869,10502
1132,18.886,10107
1133,18.903,7203
1134,18.919,7241
1135,18.936,8649
1136,18.953,7452
1137,18.969,6762
1138,18.986,7388
1139,19.002,5705
1140,19.019,6886
1141,19.036,5569
1142,19.052,5053
1143,19.069,5445
1144,19.086,4772
1145,19.102,5674
1146,19.119,5153
1147,19.136,4722
1148,19.152,4036
1149,19.169,4024
1150,19.185,3451
1151,19.202,3396
1152,19.219,3291
1153,19.235,3676
1154,19.252,2941
1155,19.269,3670
1156,19.285,2755
1157,19.302,3619
1158,19.318,2958
1159,19.335,3039
1160,19.352,2593
1161,19.368,3089
1162,19.385,2537
1163,19.402,2519
1164,19.418,2790
1165,19.435,2510
1166,19.452,2524
1167,19.468,2740
1168,19.485,2872
1169,19.501,2441
1170,19.518,2182
1171,19.535,2543
1172,19.551,2197
1173,19.568,1938
1174,19.585,2313
1175,19.601,2041
1176,19.618,2157
1177,19.635,1769
1178,19.651,2340
1179,19.668,2081
1180,19.684,1841
1181,19.701,2064
1182,19.718,1901
1183,19.734,2049
1184,19.751,1856
1185,19.768,1888
1186,19.784,1957
1187,19.801,2472
1188,19.817,2388
1189,19.834,1971
1190,19.851,1486
1191,19.867,2886
1192,19.884,1875
1193,19.901,1612
1194,19.917,1934
1195,19.934,1357
1196,19.951,1891
1197,19.967,1841
1198,19.984,1750
1199,20.000,2135
1200,20.017,1810
1201,20.034,1291
1202,20.050,1610
1203,20.067,1567
1204,20.084,1440
1205,20.100,1881
1206,20.117,1813
1207,20.134,1878
1208,20.150,1335
1209,20.167,1657
1210,20.183,1370
1211,20.200,1546
1212,20.217,1791
1213,20.233,1688
1214,20.250,1559
1215,20.267,1240
1216,20.283,1197
1217,20.300,1295
1218,20.316,1528
1219,20.333,1850
1220,20.350,1590
1221,20.366,1551
1222,20.383,1618
1223,20.400,2261
1224,20.416,1610
1225,20.433,1548
1226,20.450,1775
1227,20.466,1467
1228,20.483,1685
1229,20.499,1553
1230,20.516,1382
1231,20.533,1498
1232,20.549,1249
1233,20.566,1746
1234,20.583,1108
1235,20.599,1183
1236,20.616,1207
1237,20.633,1470
1238,20.649,1376
1239,20.666,1671
1240,20.682,1546
1241,20.699,1439
1242,20.716,1301
1243,20.732,1150
1244,20.749,1265
1245,20.766,1030
1246,20.782,1219
1247,20.799,1257
1248,20.815,1228
1249,20.832,1306
1250,20.849,1597
1251,20.865,1262
1252,20.882,1226
1253,20.899,1058
1254,20.915,1042
1255,20.932,1064
1256,20.949,1249
1257,20.965,1339
1258,20.982,938
1259,20.998,1097
1260,21.015,1429
1261,21.032,1178
1262,21.048,1272
1263,21.065,1551
1264,21.082,1101
1265,21.098,1389
1266,21.115,1251
1267,21.132,985
1268,21.148,1160
1269,21.165,1207
1270,21.181,1236
1271,21.198,1100
1272,21.215,968
1273,21.231,1106
1274,21.248,925
1275,21.265,835
1276,21.281,1331
1277,21.298,1281
1278,21.314,929
1279,21.331,1155
1280,21.348,1063
1281,21.364,1218
1282,21.381,1014
1283,21.398,1234
1284,21.414,1045
1285,21.431,1094
1286,21.448,956
1287,21.464,1034
1288,21.481,1145
1289,21.497,1422
1290,21.514,1066
1291,21.531,1072
1292,21.547,975
1293,21.564,1042
1294,21.581,1161
1295,21.597,1046
1296,21.614,1339
1297,21.630,1059
1298,21.647,1013
1299,21.664,1190
1300,21.680,1292
1301,21.697,869
1302,21.714,1173
1303,21.730,1179
1304,21.747,1042
1305,21.764,1047
1306,21.780,1089
1307,21.797,1116
1308,21.813,1088
1309,21.830,1241
1310,21.847,931
