#"+ BPC Scan nostir_75um_sp-r010.d "
#Point,X(Minutes),Y(Counts)
0,0.062,366
1,0.078,381
2,0.095,274
3,0.112,344
4,0.128,374
5,0.145,450
6,0.162,326
7,0.178,375
8,0.195,298
9,0.211,324
10,0.228,431
11,0.245,580
12,0.261,272
13,0.278,330
14,0.295,448
15,0.311,315
16,0.328,335
17,0.344,376
18,0.361,362
19,0.378,332
20,0.394,378
21,0.411,279
22,0.428,326
23,0.444,402
24,0.461,378
25,0.478,396
26,0.494,289
27,0.511,559
28,0.527,288
29,0.544,323
30,0.561,444
31,0.577,310
32,0.594,478
33,0.611,521
34,0.627,347
35,0.644,458
36,0.661,405
37,0.677,460
38,0.694,491
39,0.710,458
40,0.727,308
41,0.744,456
42,0.760,563
43,0.777,520
44,0.794,304
45,0.810,643
46,0.827,510
47,0.843,442
48,0.860,308
49,0.877,355
50,0.893,348
51,0.910,394
52,0.927,523
53,0.943,338
54,0.960,407
55,0.977,323
56,0.993,371
57,1.010,291
58,1.026,314
59,1.043,346
60,1.060,299
61,1.076,410
62,1.093,346
63,1.110,458
64,1.126,403
65,1.143,422
66,1.159,370
67,1.176,310
68,1.193,332
69,1.209,415
70,1.226,456
71,1.243,511
72,1.259,347
73,1.276,418
74,1.293,455
75,1.309,461
76,1.326,464
77,1.342,300
78,1.359,368
79,1.376,400
80,1.392,368
81,1.409,380
82,1.426,292
83,1.442,296
84,1.459,398
85,1.476,333
86,1.492,393
87,1.509,404
88,1.525,316
89,1.542,426
90,1.559,358
91,1.575,503
92,1.592,370
93,1.609,432
94,1.625,332
95,1.642,469
96,1.658,364
97,1.675,341
98,1.692,341
99,1.708,402
100,1.725,397
101,1.742,335
102,1.758,355
103,1.775,363
104,1.792,327
105,1.808,729
106,1.825,449
107,1.841,503
108,1.858,523
109,1.875,324
110,1.891,407
111,1.908,379
112,1.925,398
113,1.941,345
114,1.958,446
115,1.975,401
116,1.991,349
117,2.008,326
118,2.024,378
119,2.041,431
120,2.058,360
121,2.074,345
122,2.091,437
123,2.108,398
124,2.124,340
125,2.141,394
126,2.157,561
127,2.174,316
128,2.191,325
129,2.207,392
130,2.224,301
131,2.241,348
132,2.257,510
133,2.274,348
134,2.291,403
135,2.307,598
136,2.324,357
137,2.340,414
138,2.357,424
139,2.374,459
140,2.390,335
141,2.407,442
142,2.424,373
143,2.440,417
144,2.457,496
145,2.474,553
146,2.490,452
147,2.507,509
148,2.523,341
149,2.540,446
150,2.557,385
151,2.573,656
152,2.590,418
153,2.607,381
154,2.623,424
155,2.640,510
156,2.656,334
157,2.673,343
158,2.690,361
159,2.706,367
160,2.723,389
161,2.740,373
162,2.756,494
163,2.773,350
164,2.790,576
165,2.806,406
166,2.823,420
167,2.839,465
168,2.856,356
169,2.873,436
170,2.889,296
171,2.906,327
172,2.923,368
173,2.939,324
174,2.956,401
175,2.973,330
176,2.989,316
177,3.006,335
178,3.022,369
179,3.039,492
180,3.056,424
181,3.072,420
182,3.089,438
183,3.106,576
184,3.122,354
185,3.139,326
186,3.155,359
187,3.172,384
188,3.189,494
189,3.205,386
190,3.222,296
191,3.239,423
192,3.255,296
193,3.272,336
194,3.289,553
195,3.305,281
196,3.322,392
197,3.338,335
198,3.355,428
199,3.372,556
200,3.388,362
201,3.405,406
202,3.422,323
203,3.438,694
204,3.455,467
205,3.472,406
206,3.488,416
207,3.505,336
208,3.521,432
209,3.538,466
210,3.555,462
211,3.571,399
212,3.588,321
213,3.605,479
214,3.621,347
215,3.638,550
216,3.654,349
217,3.671,375
218,3.688,409
219,3.704,377
220,3.721,359
221,3.738,397
222,3.754,395
223,3.771,440
224,3.788,372
225,3.804,304
226,3.821,510
227,3.837,310
228,3.854,398
229,3.871,409
230,3.887,411
231,3.904,338
232,3.921,552
233,3.937,378
234,3.954,322
235,3.971,637
236,3.987,331
237,4.004,504
238,4.020,403
239,4.037,390
240,4.054,328
241,4.070,425
242,4.087,366
243,4.104,451
244,4.120,434
245,4.137,480
246,4.153,503
247,4.170,376
248,4.187,655
249,4.203,337
250,4.220,328
251,4.237,357
252,4.253,720
253,4.270,503
254,4.287,543
255,4.303,505
256,4.320,471
257,4.337,386
258,4.353,482
259,4.370,459
260,4.386,567
261,4.403,608
262,4.420,385
263,4.436,489
264,4.453,399
265,4.470,475
266,4.486,310
267,4.503,481
268,4.519,505
269,4.536,386
270,4.553,342
271,4.569,365
272,4.586,436
273,4.603,306
274,4.619,510
275,4.636,319
276,4.653,511
277,4.669,493
278,4.686,404
279,4.702,305
280,4.719,389
281,4.736,328
282,4.752,322
283,4.769,293
284,4.786,464
285,4.802,461
286,4.819,510
287,4.836,373
288,4.852,307
289,4.869,416
290,4.885,277
291,4.902,451
292,4.919,428
293,4.935,415
294,4.952,510
295,4.969,377
296,4.985,375
297,5.002,393
298,5.018,467
299,5.035,353
300,5.052,583
301,5.068,501
302,5.085,368
303,5.102,510
304,5.118,371
305,5.135,373
306,5.152,394
307,5.168,523
308,5.185,492
309,5.201,350
310,5.218,355
311,5.235,305
312,5.251,610
313,5.268,418
314,5.285,657
315,5.301,371
316,5.318,395
317,5.335,576
318,5.351,364
319,5.368,398
320,5.384,375
321,5.401,333
322,5.418,538
323,5.434,326
324,5.451,335
325,5.468,474
326,5.484,378
327,5.501,389
328,5.517,525
329,5.534,361
330,5.551,452
331,5.567,514
332,5.584,306
333,5.601,396
334,5.617,358
335,5.634,478
336,5.651,641
337,5.667,326
338,5.684,408
339,5.700,471
340,5.717,557
341,5.734,368
342,5.750,477
343,5.767,323
344,5.784,433
345,5.800,408
346,5.817,421
347,5.834,510
348,5.850,375
349,5.867,437
350,5.883,353
351,5.900,360
352,5.917,310
353,5.933,574
354,5.950,348
355,5.967,342
356,5.983,388
357,6.000,366
358,6.016,489
359,6.033,336
360,6.050,348
361,6.066,349
362,6.083,383
363,6.100,439
364,6.116,391
365,6.133,424
366,6.150,401
367,6.166,547
368,6.183,442
369,6.199,510
370,6.216,332
371,6.233,474
372,6.249,421
373,6.266,460
374,6.283,428
375,6.299,426
376,6.316,400
377,6.333,603
378,6.349,510
379,6.366,378
380,6.382,518
381,6.399,386
382,6.416,470
383,6.432,532
384,6.449,508
385,6.466,452
386,6.482,492
387,6.499,524
388,6.515,534
389,6.532,519
390,6.549,513
391,6.565,528
392,6.582,521
393,6.599,588
394,6.615,637
395,6.632,686
396,6.649,802
397,6.665,787
398,6.682,686
399,6.698,998
400,6.715,847
401,6.732,765
402,6.748,765
403,6.765,831
404,6.782,768
405,6.798,595
406,6.815,715
407,6.832,827
408,6.848,779
409,6.865,786
410,6.881,773
411,6.898,883
412,6.915,777
413,6.931,700
414,6.948,620
415,6.965,940
416,6.981,743
417,6.998,650
418,7.014,593
419,7.031,556
420,7.048,548
421,7.064,644
422,7.081,573
423,7.098,584
424,7.114,523
425,7.131,510
426,7.148,531
427,7.164,519
428,7.181,510
429,7.197,541
430,7.214,510
431,7.231,510
432,7.247,559
433,7.264,510
434,7.281,425
435,7.297,526
436,7.314,448
437,7.331,510
438,7.347,397
439,7.364,510
440,7.380,520
441,7.397,506
442,7.414,498
443,7.430,397
444,7.447,512
445,7.464,510
446,7.480,345
447,7.497,411
448,7.513,431
449,7.530,475
450,7.547,576
451,7.563,324
452,7.580,518
453,7.597,395
454,7.613,470
455,7.630,426
456,7.647,379
457,7.663,417
458,7.680,372
459,7.696,510
460,7.713,385
461,7.730,364
462,7.746,366
463,7.763,325
464,7.780,349
465,7.796,326
466,7.813,454
467,7.830,495
468,7.846,467
469,7.863,367
470,7.879,446
471,7.896,406
472,7.913,510
473,7.929,386
474,7.946,415
475,7.963,303
476,7.979,431
477,7.996,411
478,8.012,421
479,8.029,348
480,8.046,353
481,8.062,300
482,8.079,459
483,8.096,510
484,8.112,351
485,8.129,627
486,8.146,494
487,8.162,525
488,8.179,510
489,8.195,779
490,8.212,712
491,8.229,895
492,8.245,930
493,8.262,1342
494,8.279,1284
495,8.295,1548
496,8.312,1528
497,8.329,1647
498,8.345,1761
499,8.362,1617
500,8.378,1446
501,8.395,1690
502,8.412,2194
503,8.428,2268
504,8.445,2115
505,8.462,1878
506,8.478,1587
507,8.495,2227
508,8.511,1974
509,8.528,1566
510,8.545,1343
511,8.561,1707
512,8.578,2054
513,8.595,1704
514,8.611,1674
515,8.628,1592
516,8.645,1730
517,8.661,1807
518,8.678,1889
519,8.694,1779
520,8.711,1404
521,8.728,1218
522,8.744,1285
523,8.761,1428
524,8.778,1164
525,8.794,1454
526,8.811,1245
527,8.827,1395
528,8.844,1221
529,8.861,1194
530,8.877,996
531,8.894,1091
532,8.911,1447
533,8.927,1699
534,8.944,1092
535,8.961,1174
536,8.977,859
537,8.994,922
538,9.010,890
539,9.027,1019
540,9.044,1705
541,9.060,896
542,9.077,1020
543,9.094,1242
544,9.110,991
545,9.127,960
546,9.144,806
547,9.160,931
548,9.177,773
549,9.193,1080
550,9.210,895
551,9.227,982
552,9.243,867
553,9.260,925
554,9.277,1368
555,9.293,809
556,9.310,928
557,9.326,1138
558,9.343,794
559,9.360,750
560,9.376,719
561,9.393,746
562,9.410,1110
563,9.426,668
564,9.443,687
565,9.460,757
566,9.476,708
567,9.493,769
568,9.509,801
569,9.526,562
570,9.543,666
571,9.559,673
572,9.576,834
573,9.593,713
574,9.609,678
575,9.626,825
576,9.643,931
577,9.659,687
578,9.676,600
579,9.692,588
580,9.709,762
581,9.726,744
582,9.742,581
583,9.759,801
584,9.776,538
585,9.792,721
586,9.809,709
587,9.825,561
588,9.842,736
589,9.859,628
590,9.875,724
591,9.892,587
592,9.909,748
593,9.925,575
594,9.942,634
595,9.959,744
596,9.975,526
597,9.992,697
598,10.008,654
599,10.025,669
600,10.042,626
601,10.058,652
602,10.075,587
603,10.092,726
604,10.108,910
605,10.125,661
606,10.142,654
607,10.158,543
608,10.175,539
609,10.191,593
610,10.208,591
611,10.225,566
612,10.241,669
613,10.258,653
614,10.275,619
615,10.291,828
616,10.308,663
617,10.324,542
618,10.341,727
619,10.358,780
620,10.374,521
621,10.391,803
622,10.408,523
623,10.424,498
624,10.441,636
625,10.458,701
626,10.474,530
627,10.491,548
628,10.507,766
629,10.524,523
630,10.541,542
631,10.557,534
632,10.574,511
633,10.591,620
634,10.607,837
635,10.624,549
636,10.641,530
637,10.657,786
638,10.674,510
639,10.690,629
640,10.707,525
641,10.724,783
642,10.740,510
643,10.757,512
644,10.774,572
645,10.790,536
646,10.807,560
647,10.823,749
648,10.840,731
649,10.857,569
650,10.873,594
651,10.890,696
652,10.907,545
653,10.923,541
654,10.940,540
655,10.957,564
656,10.973,682
657,10.990,720
658,11.006,609
659,11.023,565
660,11.040,545
661,11.056,474
662,11.073,625
663,11.090,674
664,11.106,550
665,11.123,602
666,11.140,476
667,11.156,491
668,11.173,518
669,11.189,480
670,11.206,510
671,11.223,415
672,11.239,584
673,11.256,519
674,11.273,499
675,11.289,510
676,11.306,510
677,11.322,592
678,11.339,557
679,11.356,510
680,11.372,507
681,11.389,595
682,11.406,765
683,11.422,510
684,11.439,549
685,11.456,532
686,11.472,464
687,11.489,510
688,11.505,354
689,11.522,576
690,11.539,510
691,11.555,527
692,11.572,543
693,11.589,452
694,11.605,467
695,11.622,533
696,11.639,553
697,11.655,469
698,11.672,401
699,11.688,514
700,11.705,530
701,11.722,515
702,11.738,500
703,11.755,405
704,11.772,443
705,11.788,510
706,11.805,397
707,11.821,510
708,11.838,511
709,11.855,598
710,11.871,500
711,11.888,534
712,11.905,568
713,11.921,517
714,11.938,383
715,11.955,542
716,11.971,544
717,11.988,634
718,12.005,485
719,12.021,362
720,12.038,442
721,12.054,479
722,12.071,460
723,12.088,477
724,12.104,510
725,12.121,503
726,12.138,511
727,12.154,511
728,12.171,370
729,12.187,449
730,12.204,336
731,12.221,571
732,12.237,379
733,12.254,341
734,12.271,592
735,12.287,522
736,12.304,516
737,12.321,393
738,12.337,510
739,12.354,413
740,12.370,421
741,12.387,423
742,12.404,402
743,12.420,407
744,12.437,510
745,12.454,435
746,12.470,427
747,12.487,396
748,12.504,425
749,12.520,505
750,12.537,353
751,12.553,510
752,12.570,433
753,12.587,445
754,12.603,582
755,12.620,463
756,12.637,600
757,12.653,365
758,12.670,401
759,12.686,362
760,12.703,436
761,12.720,464
762,12.736,407
763,12.753,458
764,12.770,515
765,12.786,405
766,12.803,420
767,12.820,352
768,12.836,510
769,12.853,735
770,12.869,444
771,12.886,348
772,12.903,354
773,12.919,545
774,12.936,511
775,12.953,348
776,12.969,467
777,12.986,543
778,13.003,490
779,13.019,510
780,13.036,515
781,13.052,389
782,13.069,514
783,13.086,348
784,13.102,349
785,13.119,398
786,13.136,546
787,13.152,319
788,13.169,328
789,13.185,371
790,13.202,423
791,13.219,350
792,13.235,388
793,13.252,749
794,13.269,344
795,13.285,510
796,13.302,392
797,13.319,372
798,13.335,401
799,13.352,571
800,13.368,412
801,13.385,433
802,13.402,452
803,13.418,342
804,13.435,486
805,13.452,510
806,13.468,369
807,13.485,391
808,13.502,431
809,13.518,322
810,13.535,510
811,13.551,507
812,13.568,359
813,13.585,510
814,13.601,527
815,13.618,412
816,13.635,330
817,13.651,365
818,13.668,765
819,13.684,490
820,13.701,416
821,13.718,536
822,13.734,348
823,13.751,466
824,13.768,349
825,13.784,383
826,13.801,427
827,13.818,343
828,13.834,551
829,13.851,380
830,13.867,350
831,13.884,416
832,13.901,463
833,13.917,464
834,13.934,449
835,13.951,325
836,13.967,511
837,13.984,528
838,14.001,595
839,14.017,371
840,14.034,378
841,14.050,531
842,14.067,474
843,14.084,452
844,14.100,431
845,14.117,554
846,14.134,555
847,14.150,471
848,14.167,463
849,14.183,666
850,14.200,524
851,14.217,588
852,14.233,1511
853,14.250,2096
854,14.267,2415
855,14.283,2430
856,14.300,1887
857,14.317,1916
858,14.333,1619
859,14.350,1424
860,14.366,1458
861,14.383,1513
862,14.400,1120
863,14.416,907
864,14.433,749
865,14.450,862
866,14.466,796
867,14.483,889
868,14.500,933
869,14.516,1155
870,14.533,1414
871,14.549,1736
872,14.566,2167
873,14.583,2447
874,14.599,2698
875,14.616,3470
876,14.633,3684
877,14.649,3782
878,14.666,4405
879,14.682,4626
880,14.699,5522
881,14.716,6102
882,14.732,6433
883,14.749,6894
884,14.766,7691
885,14.782,7693
886,14.799,7811
887,14.816,7386
888,14.832,8491
889,14.849,7144
890,14.865,7227
891,14.882,7340
892,14.899,6681
893,14.915,6963
894,14.932,6724
895,14.949,7189
896,14.965,6562
897,14.982,6511
898,14.999,6964
899,15.015,6449
900,15.032,6045
901,15.048,10787
902,15.065,15265
903,15.082,28407
904,15.098,47464
905,15.115,67709
906,15.132,90029
907,15.148,123836
908,15.165,147454
909,15.181,190544
910,15.198,211173
911,15.215,241206
912,15.231,261190
913,15.248,273223
914,15.265,320882
915,15.281,318463
916,15.298,340531
917,15.315,348782
918,15.331,367956
919,15.348,379543
920,15.364,407135
921,15.381,396203
922,15.398,417121
923,15.414,418622
924,15.431,416289
925,15.448,398939
926,15.464,363428
927,15.481,316742
928,15.498,272584
929,15.514,235987
930,15.531,197249
931,15.547,148397
932,15.564,118843
933,15.581,90510
934,15.597,73290
935,15.614,54893
936,15.631,43205
937,15.647,39169
938,15.664,30277
939,15.680,25843
940,15.697,22040
941,15.714,20026
942,15.730,18009
943,15.747,17716
944,15.764,15373
945,15.780,14506
946,15.797,13792
947,15.814,12853
948,15.830,13581
949,15.847,12093
950,15.863,11596
951,15.880,11283
952,15.897,9448
953,15.913,9641
954,15.930,9265
955,15.947,5675
956,15.963,5517
957,15.980,5615
958,15.996,5179
959,16.013,5185
960,16.030,5669
961,16.046,4384
962,16.063,4626
963,16.080,5482
964,16.096,3578
965,16.113,4291
966,16.130,4127
967,16.146,4823
968,16.163,5407
969,16.179,3564
970,16.196,4277
971,16.213,4075
972,16.229,4526
973,16.246,4410
974,16.263,4726
975,16.279,5605
976,16.296,5174
977,16.313,6833
978,16.329,10780
979,16.346,17917
980,16.362,28752
981,16.379,36951
982,16.396,48329
983,16.412,52540
984,16.429,63250
985,16.446,77118
986,16.462,80730
987,16.479,93906
988,16.495,89986
989,16.512,93626
990,16.529,101527
991,16.545,93369
992,16.562,99460
993,16.579,105794
994,16.595,121521
995,16.612,116210
996,16.629,102572
997,16.645,104487
998,16.662,101506
999,16.678,101885
1000,16.695,95844
1001,16.712,99910
1002,16.728,99980
1003,16.745,92298
1004,16.762,94321
1005,16.778,90395
1006,16.795,87965
1007,16.812,82127
1008,16.828,73847
1009,16.845,62197
1010,16.861,53540
1011,16.878,47626
1012,16.895,40800
1013,16.911,34688
1014,16.928,33199
1015,16.945,25799
1016,16.961,24075
1017,16.978,18699
1018,16.994,15459
1019,17.011,13698
1020,17.028,9981
1021,17.044,9595
1022,17.061,8571
1023,17.078,6601
1024,17.094,4266
1025,17.111,3533
1026,17.128,3017
1027,17.144,2780
1028,17.161,2680
1029,17.177,2844
1030,17.194,2294
1031,17.211,2149
1032,17.227,2446
1033,17.244,3175
1034,17.261,2523
1035,17.277,2883
1036,17.294,2093
1037,17.311,2513
1038,17.327,2055
1039,17.344,1953
1040,17.360,2810
1041,17.377,2923
1042,17.394,2464
1043,17.410,2532
1044,17.427,2017
1045,17.444,2097
1046,17.460,1988
1047,17.477,2197
1048,17.493,1920
1049,17.510,1847
1050,17.527,1977
1051,17.543,2190
1052,17.560,3097
1053,17.577,1591
1054,17.593,1727
1055,17.610,1797
1056,17.627,2075
1057,17.643,1745
1058,17.660,2235
1059,17.676,1855
1060,17.693,2039
1061,17.710,1935
1062,17.726,2120
1063,17.743,1988
1064,17.760,2953
1065,17.776,3928
1066,17.793,5926
1067,17.810,7236
1068,17.826,10354
1069,17.843,15194
1070,17.859,21391
1071,17.876,24329
1072,17.893,27514
1073,17.909,34495
1074,17.926,40859
1075,17.943,43379
1076,17.959,46605
1077,17.976,48828
1078,17.992,51897
1079,18.009,55236
1080,18.026,56652
1081,18.042,58891
1082,18.059,58051
1083,18.076,62999
1084,18.092,60058
1085,18.109,56885
1086,18.126,57207
1087,18.142,58574
1088,18.159,55239
1089,18.175,54169
1090,18.192,56313
1091,18.209,58368
1092,18.225,54895
1093,18.242,48786
1094,18.259,48453
1095,18.275,45771
1096,18.292,42610
1097,18.309,44116
1098,18.325,40411
1099,18.342,38036
1100,18.358,34848
1101,18.375,31799
1102,18.392,29156
1103,18.408,29500
1104,18.425,24930
1105,18.442,20958
1106,18.458,20171
1107,18.475,19980
1108,18.491,18156
1109,18.508,16047
1110,18.525,14551
1111,18.541,13752
1112,18.558,12466
1113,18.575,9957
1114,18.591,8889
1115,18.608,11669
1116,18.625,9021
1117,18.641,8679
1118,18.658,9150
1119,18.674,7393
1120,18.691,7998
1121,18.708,6142
1122,18.724,6537
1123,18.741,5465
1124,18.758,4680
1125,18.774,4758
1126,18.791,4466
1127,18.808,4926
1128,18.824,4419
1129,18.841,3590
1130,18.857,3835
1131,18.874,3693
1132,18.891,4380
1133,18.907,2955
1134,18.924,3502
1135,18.941,3855
1136,18.957,3300
1137,18.974,3575
1138,18.990,3346
1139,19.007,3598
1140,19.024,3954
1141,19.040,2333
1142,19.057,2601
1143,19.074,2432
1144,19.090,2496
1145,19.107,3650
1146,19.124,2996
1147,19.140,2431
1148,19.157,2666
1149,19.173,2961
1150,19.190,2308
1151,19.207,1792
1152,19.223,1695
1153,19.240,2293
1154,19.257,2416
1155,19.273,2614
1156,19.290,1949
1157,19.307,2300
1158,19.323,2588
1159,19.340,2761
1160,19.356,2278
1161,19.373,2258
1162,19.390,2526
1163,19.406,2517
1164,19.423,2125
1165,19.440,1606
1166,19.456,2096
1167,19.473,1954
1168,19.489,2099
1169,19.506,1987
1170,19.523,1873
1171,19.539,1807
1172,19.556,2166
1173,19.573,1738
1174,19.589,2055
1175,19.606,1435
1176,19.623,1730
1177,19.639,1707
1178,19.656,1508
1179,19.673,1273
1180,19.689,1373
1181,19.706,1961
1182,19.722,1727
1183,19.739,1474
1184,19.756,1402
1185,19.772,1498
1186,19.789,1468
1187,19.806,1943
1188,19.822,1384
1189,19.839,1845
1190,19.855,1416
1191,19.872,1548
1192,19.889,1301
1193,19.905,1569
1194,19.922,1428
1195,19.939,1703
1196,19.955,1774
1197,19.972,1348
1198,19.989,1539
1199,20.005,1964
1200,20.022,1220
1201,20.038,1476
1202,20.055,1503
1203,20.072,1220
1204,20.088,1500
1205,20.105,1355
1206,20.122,1243
1207,20.138,1626
1208,20.155,1459
1209,20.172,1333
1210,20.188,1592
1211,20.205,1476
1212,20.221,1411
1213,20.238,1398
1214,20.255,1166
1215,20.271,1302
1216,20.288,1353
1217,20.305,1478
1218,20.321,1577
1219,20.338,1191
1220,20.354,1571
1221,20.371,1249
1222,20.388,1295
1223,20.404,1198
1224,20.421,1023
1225,20.438,1288
1226,20.454,1214
1227,20.471,1079
1228,20.488,1159
1229,20.504,1190
1230,20.521,1248
1231,20.537,1320
1232,20.554,1303
1233,20.571,1101
1234,20.587,1132
1235,20.604,1869
1236,20.621,1663
1237,20.637,1273
1238,20.654,1525
1239,20.671,1166
1240,20.687,1489
1241,20.704,1253
1242,20.720,1067
1243,20.737,1275
1244,20.754,1265
1245,20.770,1039
1246,20.787,1427
1247,20.804,897
1248,20.820,1149
1249,20.837,1035
1250,20.853,952
1251,20.870,1412
1252,20.887,1237
1253,20.903,1223
1254,20.920,878
1255,20.937,981
1256,20.953,897
1257,20.970,1086
1258,20.987,1166
1259,21.003,1041
1260,21.020,1322
1261,21.036,911
1262,21.053,1007
1263,21.070,1217
1264,21.086,1081
1265,21.103,1122
1266,21.120,1279
1267,21.136,831
1268,21.153,1279
1269,21.170,1576
1270,21.186,1181
1271,21.203,1211
1272,21.219,1093
1273,21.236,1022
1274,21.253,952
1275,21.269,1161
1276,21.286,1045
1277,21.303,1141
1278,21.319,1055
1279,21.336,1310
1280,21.352,1333
1281,21.369,1642
1282,21.386,1649
1283,21.402,1321
1284,21.419,1189
1285,21.436,1386
1286,21.452,1213
1287,21.469,1366
1288,21.486,1363
1289,21.502,1505
1290,21.519,1042
1291,21.535,1184
1292,21.552,1040
1293,21.569,1343
1294,21.585,1423
1295,21.602,1233
1296,21.619,1137
1297,21.635,1355
1298,21.652,1567
1299,21.669,1227
1300,21.685,1172
1301,21.702,1169
1302,21.718,1298
1303,21.735,1713
1304,21.752,1480
1305,21.768,1296
1306,21.785,2133
1307,21.802,1500
1308,21.818,1350
1309,21.835,1225
