#"+ BPC Scan nostir_75um_sp-r015.d "
#Point,X(Minutes),Y(Counts)
0,0.066,779
1,0.083,630
2,0.099,472
3,0.116,867
4,0.133,855
5,0.149,575
6,0.166,753
7,0.183,501
8,0.199,812
9,0.216,618
10,0.232,576
11,0.249,570
12,0.266,510
13,0.282,579
14,0.299,453
15,0.316,890
16,0.332,873
17,0.349,699
18,0.366,1043
19,0.382,596
20,0.399,542
21,0.415,857
22,0.432,1016
23,0.449,535
24,0.465,769
25,0.482,461
26,0.499,642
27,0.515,625
28,0.532,765
29,0.548,608
30,0.565,584
31,0.582,825
32,0.598,726
33,0.615,1002
34,0.632,573
35,0.648,684
36,0.665,501
37,0.682,960
38,0.698,486
39,0.715,787
40,0.731,549
41,0.748,562
42,0.765,428
43,0.781,678
44,0.798,559
45,0.815,440
46,0.831,545
47,0.848,734
48,0.865,591
49,0.881,799
50,0.898,549
51,0.914,698
52,0.931,632
53,0.948,590
54,0.964,700
55,0.981,766
56,0.998,892
57,1.014,646
58,1.031,515
59,1.048,597
60,1.064,501
61,1.081,579
62,1.097,638
63,1.114,660
64,1.131,737
65,1.147,779
66,1.164,608
67,1.181,472
68,1.197,1107
69,1.214,636
70,1.231,623
71,1.247,647
72,1.264,779
73,1.280,989
74,1.297,1599
75,1.314,704
76,1.330,563
77,1.347,901
78,1.364,576
79,1.380,603
80,1.397,531
81,1.413,682
82,1.430,817
83,1.447,550
84,1.463,648
85,1.480,489
86,1.497,921
87,1.513,793
88,1.530,702
89,1.547,536
90,1.563,690
91,1.580,665
92,1.596,569
93,1.613,634
94,1.630,962
95,1.646,752
96,1.663,571
97,1.680,904
98,1.696,535
99,1.713,790
100,1.729,778
101,1.746,967
102,1.763,565
103,1.779,870
104,1.796,660
105,1.813,797
106,1.829,701
107,1.846,656
108,1.863,533
109,1.879,551
110,1.896,821
111,1.912,1081
112,1.929,1261
113,1.946,601
114,1.962,656
115,1.979,661
116,1.996,508
117,2.012,668
118,2.029,694
119,2.046,979
120,2.062,658
121,2.079,1008
122,2.095,570
123,2.112,1182
124,2.129,1115
125,2.145,894
126,2.162,565
127,2.179,870
128,2.195,586
129,2.212,508
130,2.228,428
131,2.245,676
132,2.262,704
133,2.278,749
134,2.295,887
135,2.312,598
136,2.328,550
137,2.345,550
138,2.362,570
139,2.378,658
140,2.395,524
141,2.411,474
142,2.428,498
143,2.445,714
144,2.461,560
145,2.478,704
146,2.495,749
147,2.511,510
148,2.528,707
149,2.545,625
150,2.561,758
151,2.578,479
152,2.594,603
153,2.611,712
154,2.628,739
155,2.644,540
156,2.661,753
157,2.678,517
158,2.694,679
159,2.711,678
160,2.727,775
161,2.744,644
162,2.761,644
163,2.777,572
164,2.794,998
165,2.811,885
166,2.827,751
167,2.844,1029
168,2.861,580
169,2.877,659
170,2.894,835
171,2.910,679
172,2.927,492
173,2.944,756
174,2.960,767
175,2.977,1175
176,2.994,510
177,3.010,461
178,3.027,822
179,3.044,615
180,3.060,879
181,3.077,912
182,3.093,808
183,3.110,604
184,3.127,714
185,3.143,744
186,3.160,588
187,3.177,574
188,3.193,634
189,3.210,518
190,3.226,1126
191,3.243,553
192,3.260,798
193,3.276,722
194,3.293,773
195,3.310,706
196,3.326,725
197,3.343,538
198,3.360,1044
199,3.376,825
200,3.393,728
201,3.409,617
202,3.426,598
203,3.443,616
204,3.459,486
205,3.476,845
206,3.493,1138
207,3.509,640
208,3.526,672
209,3.543,626
210,3.559,614
211,3.576,783
212,3.592,537
213,3.609,848
214,3.626,641
215,3.642,1103
216,3.659,850
217,3.676,551
218,3.692,700
219,3.709,788
220,3.725,424
221,3.742,679
222,3.759,790
223,3.775,698
224,3.792,522
225,3.809,688
226,3.825,467
227,3.842,811
228,3.859,511
229,3.875,871
230,3.892,680
231,3.908,680
232,3.925,701
233,3.942,662
234,3.958,818
235,3.975,714
236,3.992,1082
237,4.008,654
238,4.025,1041
239,4.042,636
240,4.058,832
241,4.075,601
242,4.091,758
243,4.108,845
244,4.125,679
245,4.141,846
246,4.158,744
247,4.175,695
248,4.191,631
249,4.208,634
250,4.224,580
251,4.241,901
252,4.258,683
253,4.274,530
254,4.291,594
255,4.308,819
256,4.324,582
257,4.341,625
258,4.358,1086
259,4.374,672
260,4.391,650
261,4.407,791
262,4.424,1208
263,4.441,591
264,4.457,759
265,4.474,560
266,4.491,660
267,4.507,941
268,4.524,923
269,4.541,775
270,4.557,640
271,4.574,733
272,4.590,823
273,4.607,698
274,4.624,919
275,4.640,876
276,4.657,598
277,4.674,503
278,4.690,557
279,4.707,595
280,4.723,920
281,4.740,1014
282,4.757,996
283,4.773,1104
284,4.790,696
285,4.807,785
286,4.823,523
287,4.840,813
288,4.857,696
289,4.873,726
290,4.890,609
291,4.906,564
292,4.923,766
293,4.940,1057
294,4.956,730
295,4.973,840
296,4.990,510
297,5.006,647
298,5.023,809
299,5.040,663
300,5.056,706
301,5.073,1027
302,5.089,662
303,5.106,833
304,5.123,753
305,5.139,536
306,5.156,585
307,5.173,892
308,5.189,501
309,5.206,639
310,5.222,784
311,5.239,549
312,5.256,855
313,5.272,597
314,5.289,658
315,5.306,996
316,5.322,832
317,5.339,515
318,5.356,510
319,5.372,781
320,5.389,686
321,5.405,888
322,5.422,593
323,5.439,700
324,5.455,728
325,5.472,1039
326,5.489,695
327,5.505,884
328,5.522,585
329,5.539,620
330,5.555,559
331,5.572,867
332,5.588,665
333,5.605,733
334,5.622,665
335,5.638,789
336,5.655,930
337,5.672,875
338,5.688,780
339,5.705,935
340,5.721,721
341,5.738,948
342,5.755,643
343,5.771,669
344,5.788,832
345,5.805,749
346,5.821,981
347,5.838,775
348,5.855,876
349,5.871,1071
350,5.888,969
351,5.904,850
352,5.921,665
353,5.938,656
354,5.954,679
355,5.971,679
356,5.988,661
357,6.004,766
358,6.021,768
359,6.038,680
360,6.054,669
361,6.071,686
362,6.087,743
363,6.104,673
364,6.121,576
365,6.137,510
366,6.154,1287
367,6.171,954
368,6.187,934
369,6.204,898
370,6.220,959
371,6.237,814
372,6.254,614
373,6.270,650
374,6.287,770
375,6.304,801
376,6.320,742
377,6.337,692
378,6.354,621
379,6.370,575
380,6.387,1024
381,6.403,762
382,6.420,1131
383,6.437,902
384,6.453,673
385,6.470,1338
386,6.487,695
387,6.503,868
388,6.520,803
389,6.537,819
390,6.553,700
391,6.570,915
392,6.586,765
393,6.603,1134
394,6.620,1362
395,6.636,635
396,6.653,886
397,6.670,730
398,6.686,823
399,6.703,1009
400,6.719,707
401,6.736,672
402,6.753,667
403,6.769,656
404,6.786,792
405,6.803,777
406,6.819,605
407,6.836,551
408,6.853,663
409,6.869,567
410,6.886,726
411,6.902,683
412,6.919,720
413,6.936,725
414,6.952,765
415,6.969,677
416,6.986,531
417,7.002,586
418,7.019,772
419,7.036,791
420,7.052,662
421,7.069,591
422,7.085,773
423,7.102,559
424,7.119,585
425,7.135,765
426,7.152,510
427,7.169,594
428,7.185,533
429,7.202,672
430,7.218,545
431,7.235,517
432,7.252,612
433,7.268,628
434,7.285,696
435,7.302,496
436,7.318,912
437,7.335,727
438,7.352,796
439,7.368,656
440,7.385,671
441,7.401,452
442,7.418,892
443,7.435,586
444,7.451,776
445,7.468,624
446,7.485,508
447,7.501,529
448,7.518,613
449,7.535,930
450,7.551,510
451,7.568,858
452,7.584,510
453,7.601,580
454,7.618,633
455,7.634,806
456,7.651,806
457,7.668,749
458,7.684,530
459,7.701,883
460,7.717,899
461,7.734,535
462,7.751,606
463,7.767,913
464,7.784,569
465,7.801,845
466,7.817,806
467,7.834,650
468,7.851,946
469,7.867,684
470,7.884,843
471,7.900,708
472,7.917,649
473,7.934,695
474,7.950,558
475,7.967,586
476,7.984,632
477,8.000,686
478,8.017,623
479,8.034,772
480,8.050,560
481,8.067,1125
482,8.083,582
483,8.100,667
484,8.117,1286
485,8.133,670
486,8.150,522
487,8.167,844
488,8.183,752
489,8.200,554
490,8.216,808
491,8.233,545
492,8.250,991
493,8.266,767
494,8.283,1077
495,8.300,728
496,8.316,627
497,8.333,706
498,8.350,1076
499,8.366,942
500,8.383,678
501,8.399,811
502,8.416,795
503,8.433,706
504,8.449,801
505,8.466,905
506,8.483,797
507,8.499,911
508,8.516,817
509,8.533,849
510,8.549,880
511,8.566,896
512,8.582,1352
513,8.599,897
514,8.616,860
515,8.632,893
516,8.649,995
517,8.666,1353
518,8.682,1131
519,8.699,1369
520,8.716,1075
521,8.732,1450
522,8.749,1106
523,8.765,1125
524,8.782,1094
525,8.799,967
526,8.815,1260
527,8.832,1097
528,8.849,968
529,8.865,1172
530,8.882,1238
531,8.898,966
532,8.915,1777
533,8.932,1117
534,8.948,934
535,8.965,1052
536,8.982,1515
537,8.998,1094
538,9.015,924
539,9.032,975
540,9.048,1276
541,9.065,788
542,9.081,998
543,9.098,869
544,9.115,1312
545,9.131,954
546,9.148,835
547,9.165,1067
548,9.181,1062
549,9.198,1009
550,9.215,864
551,9.231,1169
552,9.248,1020
553,9.264,895
554,9.281,848
555,9.298,1044
556,9.314,848
557,9.331,1048
558,9.348,765
559,9.364,819
560,9.381,765
561,9.397,734
562,9.414,790
563,9.431,851
564,9.447,672
565,9.464,879
566,9.481,1011
567,9.497,1015
568,9.514,765
569,9.531,842
570,9.547,976
571,9.564,861
572,9.580,734
573,9.597,751
574,9.614,937
575,9.630,782
576,9.647,1445
577,9.664,839
578,9.680,977
579,9.697,679
580,9.714,924
581,9.730,1271
582,9.747,882
583,9.763,651
584,9.780,884
585,9.797,1370
586,9.813,1041
587,9.830,667
588,9.847,888
589,9.863,1030
590,9.880,807
591,9.896,1115
592,9.913,892
593,9.930,799
594,9.946,895
595,9.963,785
596,9.980,598
597,9.996,647
598,10.013,867
599,10.030,839
600,10.046,1174
601,10.063,918
602,10.079,695
603,10.096,639
604,10.113,913
605,10.129,973
606,10.146,701
607,10.163,750
608,10.179,768
609,10.196,1316
610,10.213,553
611,10.229,1015
612,10.246,823
613,10.262,1161
614,10.279,688
615,10.296,837
616,10.312,875
617,10.329,741
618,10.346,750
619,10.362,733
620,10.379,933
621,10.395,724
622,10.412,792
623,10.429,785
624,10.445,733
625,10.462,603
626,10.479,950
627,10.495,1277
628,10.512,981
629,10.529,817
630,10.545,631
631,10.562,768
632,10.578,742
633,10.595,769
634,10.612,871
635,10.628,777
636,10.645,772
637,10.662,746
638,10.678,991
639,10.695,892
640,10.712,930
641,10.728,725
642,10.745,781
643,10.761,844
644,10.778,635
645,10.795,660
646,10.811,652
647,10.828,687
648,10.845,569
649,10.861,734
650,10.878,768
651,10.894,599
652,10.911,701
653,10.928,876
654,10.944,753
655,10.961,707
656,10.978,556
657,10.994,597
658,11.011,912
659,11.028,784
660,11.044,705
661,11.061,877
662,11.077,1023
663,11.094,722
664,11.111,722
665,11.127,553
666,11.144,1431
667,11.161,964
668,11.177,748
669,11.194,673
670,11.211,708
671,11.227,984
672,11.244,1317
673,11.260,693
674,11.277,726
675,11.294,652
676,11.310,581
677,11.327,745
678,11.344,952
679,11.360,1043
680,11.377,789
681,11.393,744
682,11.410,656
683,11.427,891
684,11.443,629
685,11.460,942
686,11.477,851
687,11.493,719
688,11.510,563
689,11.527,583
690,11.543,937
691,11.560,804
692,11.576,651
693,11.593,783
694,11.610,984
695,11.626,595
696,11.643,682
697,11.660,854
698,11.676,738
699,11.693,678
700,11.710,565
701,11.726,999
702,11.743,688
703,11.759,510
704,11.776,718
705,11.793,1073
706,11.809,1025
707,11.826,523
708,11.843,547
709,11.859,961
710,11.876,639
711,11.892,690
712,11.909,849
713,11.926,775
714,11.942,761
715,11.959,963
716,11.976,569
717,11.992,699
718,12.009,619
719,12.026,762
720,12.042,1068
721,12.059,521
722,12.075,772
723,12.092,688
724,12.109,754
725,12.125,676
726,12.142,959
727,12.159,971
728,12.175,668
729,12.192,810
730,12.209,573
731,12.225,818
732,12.242,563
733,12.258,912
734,12.275,664
735,12.292,1023
736,12.308,652
737,12.325,1056
738,12.342,585
739,12.358,834
740,12.375,711
741,12.391,660
742,12.408,854
743,12.425,516
744,12.441,653
745,12.458,833
746,12.475,650
747,12.491,983
748,12.508,603
749,12.525,510
750,12.541,666
751,12.558,591
752,12.574,472
753,12.591,1090
754,12.608,1038
755,12.624,675
756,12.641,688
757,12.658,674
758,12.674,824
759,12.691,898
760,12.708,634
761,12.724,725
762,12.741,551
763,12.757,504
764,12.774,518
765,12.791,795
766,12.807,1136
767,12.824,563
768,12.841,510
769,12.857,781
770,12.874,646
771,12.890,763
772,12.907,773
773,12.924,1074
774,12.940,692
775,12.957,905
776,12.974,976
777,12.990,695
778,13.007,898
779,13.024,878
780,13.040,622
781,13.057,721
782,13.073,670
783,13.090,735
784,13.107,732
785,13.123,646
786,13.140,657
787,13.157,837
788,13.173,814
789,13.190,825
790,13.207,561
791,13.223,779
792,13.240,514
793,13.256,706
794,13.273,503
795,13.290,566
796,13.306,548
797,13.323,576
798,13.340,721
799,13.356,675
800,13.373,645
801,13.389,725
802,13.406,744
803,13.423,680
804,13.439,646
805,13.456,586
806,13.473,682
807,13.489,778
808,13.506,730
809,13.523,628
810,13.539,583
811,13.556,716
812,13.572,706
813,13.589,573
814,13.606,1028
815,13.622,606
816,13.639,957
817,13.656,1036
818,13.672,1666
819,13.689,1725
820,13.706,2362
821,13.722,1458
822,13.739,1713
823,13.755,1975
824,13.772,1687
825,13.789,1417
826,13.805,1295
827,13.822,1266
828,13.839,1373
829,13.855,1616
830,13.872,1238
831,13.888,1650
832,13.905,1197
833,13.922,838
834,13.938,760
835,13.955,867
836,13.972,1137
837,13.988,1096
838,14.005,686
839,14.022,664
840,14.038,992
841,14.055,990
842,14.071,617
843,14.088,613
844,14.105,1116
845,14.121,1189
846,14.138,962
847,14.155,1278
848,14.171,1542
849,14.188,1941
850,14.205,2543
851,14.221,2770
852,14.238,2941
853,14.254,3801
854,14.271,4035
855,14.288,4358
856,14.304,5194
857,14.321,5437
858,14.338,5242
859,14.354,6586
860,14.371,6380
861,14.387,6921
862,14.404,6557
863,14.421,6975
864,14.437,7336
865,14.454,6960
866,14.471,7481
867,14.487,7087
868,14.504,7001
869,14.521,7050
870,14.537,7285
871,14.554,6919
872,14.570,6224
873,14.587,6852
874,14.604,6432
875,14.620,6610
876,14.637,6466
877,14.654,6706
878,14.670,5879
879,14.687,8606
880,14.704,13794
881,14.720,27151
882,14.737,36757
883,14.753,58524
884,14.770,85689
885,14.787,123261
886,14.803,153377
887,14.820,169542
888,14.837,209434
889,14.853,234966
890,14.870,257849
891,14.886,272840
892,14.903,294280
893,14.920,307161
894,14.936,330988
895,14.953,337474
896,14.970,362707
897,14.986,352872
898,15.003,371689
899,15.020,370334
900,15.036,379555
901,15.053,375487
902,15.069,375831
903,15.086,352080
904,15.103,319922
905,15.119,298643
906,15.136,265843
907,15.153,222482
908,15.169,176337
909,15.186,133583
910,15.203,106862
911,15.219,84073
912,15.236,76979
913,15.252,52999
914,15.269,39423
915,15.286,33895
916,15.302,27871
917,15.319,23499
918,15.336,21822
919,15.352,19214
920,15.369,17239
921,15.385,16371
922,15.402,15271
923,15.419,13395
924,15.435,14390
925,15.452,14058
926,15.469,12178
927,15.485,11273
928,15.502,11315
929,15.519,10164
930,15.535,8609
931,15.552,8782
932,15.568,8806
933,15.585,9011
934,15.602,7407
935,15.618,8353
936,15.635,6472
937,15.652,6431
938,15.668,7209
939,15.685,5980
940,15.701,5949
941,15.718,6098
942,15.735,5919
943,15.751,5851
944,15.768,5501
945,15.785,6143
946,15.801,6454
947,15.818,4866
948,15.835,6502
949,15.851,5475
950,15.868,7707
951,15.884,10409
952,15.901,16712
953,15.918,23932
954,15.934,35851
955,15.951,48144
956,15.968,61698
957,15.984,74456
958,16.001,74312
959,16.018,82932
960,16.034,90951
961,16.051,94335
962,16.067,95854
963,16.084,103035
964,16.101,105947
965,16.117,105868
966,16.134,109922
967,16.151,101848
968,16.167,112255
969,16.184,112876
970,16.201,109591
971,16.217,103314
972,16.234,105917
973,16.250,111507
974,16.267,103028
975,16.284,98717
976,16.300,98732
977,16.317,99655
978,16.334,93743
979,16.350,88953
980,16.367,89451
981,16.384,73972
982,16.400,70547
983,16.417,59644
984,16.433,50280
985,16.450,43032
986,16.467,35276
987,16.483,24281
988,16.500,24414
989,16.517,19264
990,16.533,16116
991,16.550,14108
992,16.566,9889
993,16.583,8842
994,16.600,7224
995,16.616,5842
996,16.633,4874
997,16.650,4347
998,16.666,3797
999,16.683,3419
1000,16.700,2918
1001,16.716,2873
1002,16.733,2841
1003,16.749,2913
1004,16.766,2838
1005,16.783,2239
1006,16.799,2344
1007,16.816,2143
1008,16.833,2076
1009,16.849,2673
1010,16.866,2414
1011,16.883,2051
1012,16.899,1781
1013,16.916,2668
1014,16.932,1986
1015,16.949,1584
1016,16.966,1894
1017,16.982,1945
1018,16.999,1963
1019,17.016,1827
1020,17.032,1533
1021,17.049,1590
1022,17.065,1685
1023,17.082,1919
1024,17.099,2015
1025,17.115,2084
1026,17.132,1726
1027,17.149,1814
1028,17.165,1893
1029,17.182,2162
1030,17.199,1923
1031,17.215,2063
1032,17.232,2452
1033,17.248,2299
1034,17.265,2130
1035,17.282,2679
1036,17.298,3534
1037,17.315,3516
1038,17.332,4145
1039,17.348,5469
1040,17.365,8427
1041,17.382,12532
1042,17.398,16745
1043,17.415,22597
1044,17.431,29116
1045,17.448,36171
1046,17.465,41088
1047,17.481,45587
1048,17.498,47161
1049,17.515,52794
1050,17.531,54965
1051,17.548,56621
1052,17.564,58691
1053,17.581,58491
1054,17.598,55709
1055,17.614,57237
1056,17.631,55665
1057,17.648,54544
1058,17.664,58108
1059,17.681,55409
1060,17.698,50881
1061,17.714,50468
1062,17.731,50510
1063,17.747,50504
1064,17.764,47810
1065,17.781,45514
1066,17.797,47852
1067,17.814,40706
1068,17.831,39692
1069,17.847,33768
1070,17.864,33564
1071,17.881,32366
1072,17.897,32237
1073,17.914,28747
1074,17.930,25789
1075,17.947,21865
1076,17.964,21894
1077,17.980,19041
1078,17.997,17013
1079,18.014,19916
1080,18.030,14643
1081,18.047,14548
1082,18.063,12647
1083,18.080,12159
1084,18.097,11454
1085,18.113,11874
1086,18.130,8857
1087,18.147,9137
1088,18.163,7640
1089,18.180,6998
1090,18.197,7153
1091,18.213,6429
1092,18.230,9073
1093,18.246,6329
1094,18.263,5633
1095,18.280,6107
1096,18.296,5165
1097,18.313,5397
1098,18.330,4425
1099,18.346,4345
1100,18.363,4166
1101,18.380,5241
1102,18.396,3362
1103,18.413,3300
1104,18.429,3507
1105,18.446,3523
1106,18.463,3806
1107,18.479,3757
1108,18.496,3644
1109,18.513,3103
1110,18.529,3111
1111,18.546,3717
1112,18.562,2921
1113,18.579,3464
1114,18.596,2896
1115,18.612,3187
1116,18.629,2822
1117,18.646,2497
1118,18.662,2815
1119,18.679,2808
1120,18.696,2922
1121,18.712,2697
1122,18.729,2343
1123,18.745,2824
1124,18.762,2699
1125,18.779,2565
1126,18.795,2108
1127,18.812,2581
1128,18.829,2528
1129,18.845,2892
1130,18.862,2753
1131,18.879,2208
1132,18.895,2127
1133,18.912,2540
1134,18.928,2320
1135,18.945,2404
1136,18.962,2218
1137,18.978,2401
1138,18.995,1921
1139,19.012,2604
1140,19.028,2082
1141,19.045,2479
1142,19.061,2607
1143,19.078,1753
1144,19.095,1848
1145,19.111,1844
1146,19.128,2075
1147,19.145,1710
1148,19.161,1738
1149,19.178,1847
1150,19.195,2050
1151,19.211,1929
1152,19.228,1616
1153,19.244,1642
1154,19.261,1813
1155,19.278,2043
1156,19.294,1440
1157,19.311,1770
1158,19.328,1727
1159,19.344,1794
1160,19.361,1853
1161,19.378,1493
1162,19.394,1481
1163,19.411,1591
1164,19.427,1928
1165,19.444,2082
1166,19.461,1504
1167,19.477,1754
1168,19.494,1509
1169,19.511,1668
1170,19.527,1664
1171,19.544,2194
1172,19.560,1376
1173,19.577,1524
1174,19.594,1357
1175,19.610,2305
1176,19.627,1765
1177,19.644,2196
1178,19.660,1745
1179,19.677,1445
1180,19.694,1445
1181,19.710,2068
1182,19.727,1923
1183,19.743,1519
1184,19.760,1416
1185,19.777,1631
1186,19.793,1488
1187,19.810,1462
1188,19.827,1685
1189,19.843,1047
1190,19.860,1229
1191,19.877,1548
1192,19.893,1363
1193,19.910,1453
1194,19.926,1418
1195,19.943,1338
1196,19.960,1443
1197,19.976,1594
1198,19.993,1130
1199,20.010,1082
1200,20.026,1615
1201,20.043,1416
1202,20.059,1194
1203,20.076,1494
1204,20.093,1469
1205,20.109,1433
1206,20.126,1368
1207,20.143,1532
1208,20.159,1296
1209,20.176,1454
1210,20.193,1172
1211,20.209,1187
1212,20.226,1516
1213,20.242,1318
1214,20.259,1320
1215,20.276,1084
1216,20.292,1333
1217,20.309,1124
1218,20.326,1031
1219,20.342,938
1220,20.359,1263
1221,20.376,924
1222,20.392,946
1223,20.409,1239
1224,20.425,1179
1225,20.442,985
1226,20.459,1610
1227,20.475,1260
1228,20.492,1186
1229,20.509,1411
1230,20.525,1318
1231,20.542,1304
1232,20.558,1241
1233,20.575,1092
1234,20.592,1475
1235,20.608,1658
1236,20.625,1076
1237,20.642,1443
1238,20.658,1263
1239,20.675,1213
1240,20.692,1696
1241,20.708,1344
1242,20.725,1349
1243,20.741,1352
1244,20.758,1105
1245,20.775,1570
1246,20.791,1260
1247,20.808,1670
1248,20.825,1241
1249,20.841,1485
1250,20.858,1410
1251,20.875,1711
1252,20.891,1204
1253,20.908,1378
1254,20.924,2199
1255,20.941,1539
1256,20.958,1348
1257,20.974,1606
1258,20.991,1668
1259,21.008,1390
1260,21.024,1324
1261,21.041,1429
1262,21.057,1409
1263,21.074,1383
1264,21.091,1722
1265,21.107,1512
1266,21.124,1268
1267,21.141,1474
1268,21.157,1602
1269,21.174,2165
1270,21.191,1236
1271,21.207,1513
1272,21.224,1617
1273,21.240,1367
1274,21.257,1796
1275,21.274,1848
1276,21.290,1638
1277,21.307,1334
1278,21.324,1327
1279,21.340,1475
1280,21.357,1214
1281,21.374,1227
1282,21.390,1507
1283,21.407,1497
1284,21.423,1113
1285,21.440,1339
1286,21.457,1043
1287,21.473,1043
1288,21.490,1081
1289,21.507,1146
1290,21.523,1023
1291,21.540,927
1292,21.556,951
1293,21.573,1026
1294,21.590,1258
1295,21.606,1274
1296,21.623,1749
1297,21.640,1158
1298,21.656,1176
1299,21.673,1311
1300,21.690,1049
1301,21.706,1033
1302,21.723,1190
1303,21.739,1144
1304,21.756,1190
1305,21.773,1425
