#"+ BPC(1083.03666) Scan unstir_75_Ecoli-r001.d "
#Point,X(Minutes),Y(Counts)
0,0.067,0.0832177530040174
1,0.084,0
2,0.101,0.0765270398630128
3,0.117,0
4,0.134,0
5,0.151,0
6,0.167,0.105439521855805
7,0.184,0
8,0.200,0
9,0.217,0
10,0.234,0
11,0.250,0.0997900734644693
12,0.267,0.0609296109863344
13,0.284,0.104938548663294
14,0.300,0.0798687351907713
15,0.317,0
16,0.333,0.13858372397608
17,0.350,0.0853768897797413
18,0.367,0
19,0.383,0
20,0.400,0
21,0.417,0
22,0.433,0.0680195458532849
23,0.450,0.112801014890857
24,0.467,0
25,0.483,0
26,0.500,0
27,0.516,0
28,0.533,0.0613292303753498
29,0.550,0
30,0.566,0
31,0.583,0.068672883422351
32,0.600,0
33,0.616,0
34,0.633,0
35,0.650,0
36,0.666,0
37,0.683,0.0626961217580591
38,0.699,0
39,0.716,0.119803943820695
40,0.733,0
41,0.749,0
42,0.766,0.0875110332030021
43,0.783,0
44,0.799,0
45,0.816,0
46,0.832,0.15906347261622
47,0.849,0
48,0.866,0.134739638495448
49,0.882,0
50,0.899,0
51,0.916,0.170746100548484
52,0.932,0.0782761997265535
53,0.949,0
54,0.966,0.0813328391960452
55,0.982,0.0750552019966622
56,0.999,0.0877105777887968
57,1.015,0
58,1.032,0
59,1.049,0
60,1.065,0
61,1.082,0.124890420147389
62,1.099,0
63,1.115,0.0812218957704815
64,1.132,0
65,1.149,0
66,1.165,0
67,1.182,0
68,1.198,0
69,1.215,0
70,1.232,0.0912996743958921
71,1.248,0
72,1.265,0
73,1.282,0
74,1.298,0
75,1.315,0
76,1.331,0.121035017267214
77,1.348,0
78,1.365,0.078740258816195
79,1.381,0
80,1.398,0
81,1.415,0.118708377493253
82,1.431,0
83,1.448,0
84,1.465,0
85,1.481,0
86,1.498,0
87,1.514,0
88,1.531,0
89,1.548,0
90,1.564,0
91,1.581,0
92,1.598,0
93,1.614,0
94,1.631,0
95,1.648,0
96,1.664,0.081561938832503
97,1.681,0
98,1.697,0
99,1.714,0
100,1.731,0
101,1.747,0.157875072530819
102,1.764,0
103,1.781,0.0898779146512651
104,1.797,0
105,1.814,0
106,1.830,0
107,1.847,0.0821182557542793
108,1.864,0.0660488602349673
109,1.880,0
110,1.897,0
111,1.914,0
112,1.930,0
113,1.947,0
114,1.964,0.0873161600155647
115,1.980,0
116,1.997,0
117,2.013,0
118,2.030,0.0629322193503729
119,2.047,0
120,2.063,0
121,2.080,0
122,2.097,0.0781418353174455
123,2.113,0
124,2.130,0
125,2.146,0
126,2.163,0
127,2.180,0.147781917600052
128,2.196,0
129,2.213,0.0645513936694105
130,2.230,0
131,2.246,0
132,2.263,0
133,2.280,0.132837355495932
134,2.296,0.138280357333255
135,2.313,0
136,2.329,0.0709953043111027
137,2.346,0.158464363491488
138,2.363,0.0717329464509127
139,2.379,0
140,2.396,0
141,2.413,0
142,2.429,0
143,2.446,0.0964695319836747
144,2.463,0
145,2.479,0
146,2.496,0.261211578382945
147,2.512,0
148,2.529,0
149,2.546,0
150,2.562,0
151,2.579,0.0772386464988671
152,2.596,0.124255493921359
153,2.612,0
154,2.629,0
155,2.646,0
156,2.662,0
157,2.679,0
158,2.695,0
159,2.712,0.105872206700511
160,2.729,0
161,2.745,0
162,2.762,0.0807085538852554
163,2.779,0
164,2.795,0.159925916968109
165,2.812,0.087680364537191
166,2.828,0
167,2.845,0
168,2.862,0.13857421662913
169,2.878,0
170,2.895,0.069498285687854
171,2.912,0
172,2.928,0
173,2.945,0
174,2.962,0.0941805285052845
175,2.978,0.0640476185520529
176,2.995,0
177,3.011,0.0753243559029871
178,3.028,0.0821020201310261
179,3.045,0
180,3.061,0.0962315557761702
181,3.078,0.0875899258993283
182,3.095,0.0619420383072013
183,3.111,0
184,3.128,0.0727938383870255
185,3.145,0.0635423122033357
186,3.161,0
187,3.178,0
188,3.194,0.0839258675182036
189,3.211,0
190,3.228,0
191,3.244,0
192,3.261,0
193,3.278,0
194,3.294,0.116901167963239
195,3.311,0
196,3.327,0.0759083264060366
197,3.344,0.0887080538924167
198,3.361,0.124939346417463
199,3.377,0
200,3.394,0.0758154469396781
201,3.411,0
202,3.427,0
203,3.444,0
204,3.461,0
205,3.477,0
206,3.494,0
207,3.510,0
208,3.527,0
209,3.544,0
210,3.560,0
211,3.577,0.0782326761892176
212,3.594,0.0762680697879402
213,3.610,0.0628509863840282
214,3.627,0.0820779500882188
215,3.644,0
216,3.660,0
217,3.677,0
218,3.693,0
219,3.710,0.0724941741245027
220,3.727,0
221,3.743,0
222,3.760,0.0949080233805612
223,3.777,0.0787089302796585
224,3.793,0.0786498201783323
225,3.810,0
226,3.826,0.114963342112817
227,3.843,0.063306324311179
228,3.860,0.105183280572141
229,3.876,0.0655436087363286
230,3.893,0
231,3.910,0
232,3.926,0.0696300538599103
233,3.943,0
234,3.960,0
235,3.976,0.0710465068594367
236,3.993,0.1308885139214
237,4.009,0.132875357458693
238,4.026,0
239,4.043,0
240,4.059,0
241,4.076,0
242,4.093,0
243,4.109,0.0895561458070833
244,4.126,0
245,4.143,0
246,4.159,0
247,4.176,0
248,4.192,0.123472079390992
249,4.209,0.10827347914803
250,4.226,0
251,4.242,0.159968389212273
252,4.259,0.227961021960345
253,4.276,0.0640113946460052
254,4.292,0
255,4.309,0
256,4.325,0
257,4.342,0
258,4.359,0
259,4.375,0
260,4.392,0.0858733469824512
261,4.409,0.0982652961306303
262,4.425,0.0970042379744991
263,4.442,0
264,4.459,0
265,4.475,0
266,4.492,0
267,4.508,0
268,4.525,0
269,4.542,0.0886681504602656
270,4.558,0
271,4.575,0.10115842751594
272,4.592,0
273,4.608,0
274,4.625,0
275,4.642,0
276,4.658,0
277,4.675,0
278,4.691,0
279,4.708,0.0667858807405537
280,4.725,0
281,4.741,0.075399454802213
282,4.758,0
283,4.775,0.0703687472928927
284,4.791,0
285,4.808,0
286,4.825,0.0862451390982781
287,4.841,0
288,4.858,0
289,4.874,0
290,4.891,0
291,4.908,0
292,4.924,0
293,4.941,0.172185969960715
294,4.958,0
295,4.974,0.127848667717627
296,4.991,0.0964327092976026
297,5.007,0.0638717417751561
298,5.024,0
299,5.041,0
300,5.057,0
301,5.074,0
302,5.091,0
303,5.107,0.123868992842799
304,5.124,0
305,5.141,0.084446458755479
306,5.157,0
307,5.174,0
308,5.190,0
309,5.207,0.0782503561978728
310,5.224,0
311,5.240,0.102486658734946
312,5.257,0.113446965982678
313,5.274,0
314,5.290,0
315,5.307,0
316,5.324,0.0856373819444939
317,5.340,0
318,5.357,0.0759479921545139
319,5.373,0
320,5.390,0
321,5.407,0
322,5.423,0.0605727198085158
323,5.440,0.152869152686167
324,5.457,0
325,5.473,0
326,5.490,0.0781903776369695
327,5.506,0
328,5.523,0.0922816919190383
329,5.540,0.0705670029018412
330,5.556,0.0775615854780582
331,5.573,0.0812756945558673
332,5.590,0
333,5.606,0
334,5.623,0.190516701664625
335,5.640,0
336,5.656,0
337,5.673,0.10325949634183
338,5.689,0
339,5.706,0
340,5.723,0
341,5.739,0
342,5.756,0
343,5.773,0
344,5.789,0
345,5.806,0.0724486714134988
346,5.823,0
347,5.839,0
348,5.856,0
349,5.872,0.0679101656549601
350,5.889,0
351,5.906,0
352,5.922,0
353,5.939,0.108063275363636
354,5.956,0
355,5.972,0.115311228736073
356,5.989,0.0980861466323795
357,6.005,0
358,6.022,0
359,6.039,0.0682622117425061
360,6.055,0
361,6.072,0.0718388116733698
362,6.089,0
363,6.105,0
364,6.122,0
365,6.139,0.0702058334178951
366,6.155,0.107956811361154
367,6.172,0
368,6.188,0.0747014189899619
369,6.205,0
370,6.222,0
371,6.238,0
372,6.255,0
373,6.272,0
374,6.288,0.102759053366745
375,6.305,0
376,6.321,0
377,6.338,0.146613629210122
378,6.355,0.0907929785118513
379,6.371,0.0689702348398946
380,6.388,0
381,6.405,0
382,6.421,0.10198434171551
383,6.438,0.0662611026139482
384,6.455,0.0778177536282844
385,6.471,0
386,6.488,0.102354744296013
387,6.504,0
388,6.521,0
389,6.538,0
390,6.554,0.124260878370738
391,6.571,0
392,6.588,0.105268462744142
393,6.604,0.170446545986119
394,6.621,0
395,6.638,0.10805017533654
396,6.654,0.0680715117318789
397,6.671,0
398,6.687,0.0805373850734349
399,6.704,0
400,6.721,0.0841433480796868
401,6.737,0.0783282798761445
402,6.754,0
403,6.771,0
404,6.787,0
405,6.804,0
406,6.820,0.0829771714177815
407,6.837,0.0843819733464541
408,6.854,0
409,6.870,0
410,6.887,0
411,6.904,0
412,6.920,0.0793240921940481
413,6.937,0
414,6.954,0.0639424161013784
415,6.970,0.117533260268543
416,6.987,0
417,7.003,0
418,7.020,0
419,7.037,0
420,7.053,0
421,7.070,0
422,7.087,0
423,7.103,0
424,7.120,0
425,7.137,0.170581093228822
426,7.153,0
427,7.170,0
428,7.186,0.0895263987811453
429,7.203,0.100236946196163
430,7.220,0
431,7.236,0
432,7.253,0
433,7.270,0
434,7.286,0.0779737015433051
435,7.303,0.0766320137716934
436,7.319,0
437,7.336,0.0610117764040146
438,7.353,0.0820779500882188
439,7.369,0
440,7.386,0.0821440718579207
441,7.403,0
442,7.419,0.067796767688381
443,7.436,0
444,7.453,0.160848312455863
445,7.469,0
446,7.486,0
447,7.502,0
448,7.519,0
449,7.536,0
450,7.552,0.0881076649325188
451,7.569,0.0723030124590476
452,7.586,0
453,7.602,0
454,7.619,0
455,7.636,0
456,7.652,0.0781493223531687
457,7.669,0
458,7.685,0
459,7.702,0
460,7.719,0
461,7.735,0
462,7.752,0
463,7.769,0.101501103381732
464,7.785,0
465,7.802,0
466,7.818,0
467,7.835,0
468,7.852,0
469,7.868,0.0840836620525357
470,7.885,0.107728040825168
471,7.902,0
472,7.918,0
473,7.935,0
474,7.952,0.0774312434080444
475,7.968,0
476,7.985,0.0638586143230212
477,8.001,0.0609982238637708
478,8.018,0.0885345265272181
479,8.035,0.0679377918111939
480,8.051,0
481,8.068,0.174939864421605
482,8.085,0.13513480588642
483,8.101,0
484,8.118,0
485,8.135,0
486,8.151,0
487,8.168,0
488,8.184,0
489,8.201,0
490,8.218,0
491,8.234,0
492,8.251,0
493,8.268,0
494,8.284,0.0706621952131789
495,8.301,0
496,8.317,0.078085970512434
497,8.334,0.0614455216835729
498,8.351,0
499,8.367,0.0656035050221142
500,8.384,0.13484112942414
501,8.401,0
502,8.417,0
503,8.434,0
504,8.451,0
505,8.467,0.0693407334080355
506,8.484,0
507,8.500,0.133200033357039
508,8.517,0
509,8.534,0
510,8.550,0
511,8.567,0
512,8.584,0
513,8.600,0
514,8.617,0
515,8.634,0
516,8.650,0
517,8.667,0
518,8.683,0
519,8.700,0
520,8.717,0
521,8.733,0
522,8.750,0
523,8.767,0
524,8.783,0
525,8.800,0
526,8.816,0
527,8.833,0
528,8.850,0
529,8.866,0
530,8.883,0
531,8.900,0
532,8.916,0
533,8.933,0
534,8.950,0
535,8.966,0
536,8.983,0
537,8.999,0
538,9.016,0
539,9.033,0
540,9.049,0.0704030011669523
541,9.066,0
542,9.083,0
543,9.099,0
544,9.116,0
545,9.133,0
546,9.149,0.0605297493428054
547,9.166,0
548,9.182,0
549,9.199,0
550,9.216,0
551,9.232,0
552,9.249,0
553,9.266,0
554,9.282,0
555,9.299,0
556,9.315,0
557,9.332,0
558,9.349,0
559,9.365,0
560,9.382,0
561,9.399,0
562,9.415,0
563,9.432,0
564,9.449,0
565,9.465,0
566,9.482,0
567,9.498,0
568,9.515,0
569,9.532,0
570,9.548,0
571,9.565,0
572,9.582,0
573,9.598,0
574,9.615,0
575,9.632,0
576,9.648,0
577,9.665,0
578,9.681,0
579,9.698,0
580,9.715,0
581,9.731,0
582,9.748,0
583,9.765,0
584,9.781,0
585,9.798,0
586,9.814,0
587,9.831,0
588,9.848,0
589,9.864,0
590,9.881,0
591,9.898,0
592,9.914,0
593,9.931,0
594,9.948,0
595,9.964,0
596,9.981,0
597,9.997,0
598,10.014,0
599,10.031,0
600,10.047,0
601,10.064,0
602,10.081,0
603,10.097,0
604,10.114,0
605,10.131,0
606,10.147,0
607,10.164,0
608,10.180,0
609,10.197,0
610,10.214,0
611,10.230,0
612,10.247,0
613,10.264,0
614,10.280,0
615,10.297,0
616,10.313,0
617,10.330,0
618,10.347,0
619,10.363,0
620,10.380,0
621,10.397,0
622,10.413,0
623,10.430,0
624,10.447,0
625,10.463,0
626,10.480,0
627,10.496,0
628,10.513,0
629,10.530,0
630,10.546,0
631,10.563,0
632,10.580,0
633,10.596,0
634,10.613,0
635,10.630,0
636,10.646,0
637,10.663,0
638,10.679,0
639,10.696,0
640,10.713,0
641,10.729,0
642,10.746,0
643,10.763,0
644,10.779,0
645,10.796,0
646,10.812,0
647,10.829,0
648,10.846,0
649,10.862,0
650,10.879,0
651,10.896,0
652,10.912,0
653,10.929,0
654,10.946,0
655,10.962,0
656,10.979,0
657,10.995,0
658,11.012,0
659,11.029,0
660,11.045,0
661,11.062,0
662,11.079,0
663,11.095,0
664,11.112,0
665,11.129,0
666,11.145,0
667,11.162,0
668,11.178,0
669,11.195,0
670,11.212,0
671,11.228,0
672,11.245,0
673,11.262,0
674,11.278,0
675,11.295,0
676,11.311,0
677,11.328,0
678,11.345,0
679,11.361,0
680,11.378,0
681,11.395,0
682,11.411,0
683,11.428,0
684,11.445,0
685,11.461,0
686,11.478,0
687,11.494,0
688,11.511,0
689,11.528,0
690,11.544,0
691,11.561,0.105781768062649
692,11.578,0
693,11.594,0
694,11.611,0
695,11.628,0.0686571643040042
696,11.644,0
697,11.661,0.0693194241525157
698,11.677,0
699,11.694,0.0701725622744097
700,11.711,0
701,11.727,0
702,11.744,0
703,11.761,0.0706129946927123
704,11.777,0.0623666099111208
705,11.794,0.0739921800491653
706,11.810,0.0890076450215015
707,11.827,0
708,11.844,0
709,11.860,0
710,11.877,0
711,11.894,0
712,11.910,0
713,11.927,0
714,11.944,0
715,11.960,0.0782145756632934
716,11.977,0
717,11.993,0
718,12.010,0
719,12.027,0.108199989184442
720,12.043,0.142040458201935
721,12.060,0
722,12.077,0.060575261195489
723,12.093,0.079259689060141
724,12.110,0.0896523985532732
725,12.127,0
726,12.143,0
727,12.160,0
728,12.176,0.0842176242277343
729,12.193,0
730,12.210,0.0850508609127914
731,12.226,0
732,12.243,0
733,12.260,0.127882491932738
734,12.276,0
735,12.293,0
736,12.310,0.117371105152966
737,12.326,0
738,12.343,0
739,12.359,0
740,12.376,0
741,12.393,0
742,12.409,0
743,12.426,0
744,12.443,0
745,12.459,0
746,12.476,0
747,12.492,0.0634389975095315
748,12.509,0
749,12.526,0
750,12.542,0
751,12.559,0
752,12.576,0
753,12.592,0
754,12.609,0
755,12.626,0
756,12.642,0.0707518888041412
757,12.659,0
758,12.675,0
759,12.692,0.0872381266371359
760,12.709,0
761,12.725,0.066082807862755
762,12.742,0
763,12.759,0
764,12.775,0
765,12.792,0
766,12.809,0
767,12.825,0
768,12.842,0
769,12.858,0
770,12.875,0.111965730469534
771,12.892,0
772,12.908,0
773,12.925,0
774,12.942,0
775,12.958,0.0626089832665896
776,12.975,0
777,12.991,0
778,13.008,0
779,13.025,0
780,13.041,0
781,13.058,0.0731354903846847
782,13.075,0
783,13.091,0
784,13.108,0
785,13.125,0
786,13.141,0
787,13.158,0
788,13.174,0
789,13.191,0
790,13.208,0
791,13.224,0
792,13.241,0
793,13.258,0
794,13.274,0
795,13.291,0
796,13.308,0.0617178888903334
797,13.324,0.0701064679297471
798,13.341,0
799,13.357,0.122677018360612
800,13.374,0
801,13.391,0
802,13.407,0
803,13.424,0
804,13.441,0
805,13.457,0.0743687578343464
806,13.474,0
807,13.490,0.0674113179029931
808,13.507,0
809,13.524,0
810,13.540,0
811,13.557,0
812,13.574,0
813,13.590,0
814,13.607,0
815,13.624,0.0704169056618667
816,13.640,0
817,13.657,0
818,13.673,0
819,13.690,0.0750720409707796
820,13.707,0
821,13.723,0
822,13.740,0.0833616521851148
823,13.757,0.0926234993252534
824,13.773,0
825,13.790,0
826,13.807,0
827,13.823,0
828,13.840,0.0794006811870748
829,13.856,0.0873065429684575
830,13.873,0.0736717001818296
831,13.890,0
832,13.906,0
833,13.923,0
834,13.940,0
835,13.956,0
836,13.973,0.0769633356712241
837,13.989,0
838,14.006,0
839,14.023,0
840,14.039,0
841,14.056,0
842,14.073,0
843,14.089,0.10791017051102
844,14.106,0.0700302994539893
845,14.123,0
846,14.139,0
847,14.156,0
848,14.172,0.0672250378945297
849,14.189,0.0986242350447151
850,14.206,0
851,14.222,0
852,14.239,0
853,14.256,0
854,14.272,0.114802814216237
855,14.289,0
856,14.306,0
857,14.322,0
858,14.339,0
859,14.355,0.0765789828874074
860,14.372,0
861,14.389,0
862,14.405,0
863,14.422,0.124019583733481
864,14.439,0
865,14.455,0
866,14.472,0
867,14.488,0
868,14.505,0
869,14.522,0
870,14.538,0
871,14.555,0
872,14.572,0
873,14.588,0
874,14.605,0.0773323761414433
875,14.622,0
876,14.638,0
877,14.655,0
878,14.671,0
879,14.688,0.0671189441300786
880,14.705,0
881,14.721,0
882,14.738,0
883,14.755,0
884,14.771,0
885,14.788,0
886,14.804,0.0664491743916445
887,14.821,0.213282848404423
888,14.838,0
889,14.854,0.0636387706373201
890,14.871,0.08756741908376
891,14.888,0
892,14.904,0
893,14.921,0.0871610531350819
894,14.938,0
895,14.954,0
896,14.971,0.0633653338540278
897,14.987,0
898,15.004,0.076694606853008
899,15.021,0
900,15.037,0
901,15.054,0
902,15.071,0
903,15.087,0.118503786700231
904,15.104,0
905,15.121,0
906,15.137,0
907,15.154,0.0889014552694128
908,15.170,0
909,15.187,0
910,15.204,0
911,15.220,0
912,15.237,0
913,15.254,0
914,15.270,0
915,15.287,0.0703472597746175
916,15.303,0
917,15.320,0.0905752145582956
918,15.337,0.102190066076822
919,15.353,0
920,15.370,0.131204898316204
921,15.387,0.165362400787763
922,15.403,0.11592761563555
923,15.420,0
924,15.437,0
925,15.453,0
926,15.470,0
927,15.486,0
928,15.503,0
929,15.520,0.0847874251271562
930,15.536,0
931,15.553,0
932,15.570,0
933,15.586,0
934,15.603,0
935,15.620,0
936,15.636,0.0833896348668592
937,15.653,0
938,15.669,0
939,15.686,0
940,15.703,0
941,15.719,0.0653172973121976
942,15.736,0
943,15.753,0.141988862561371
944,15.769,0
945,15.786,0.0793445147066312
946,15.802,0
947,15.819,0
948,15.836,0
949,15.852,0
950,15.869,0
951,15.886,0.0877115925152501
952,15.902,0
953,15.919,0.0656182139848475
954,15.936,0.0908733521602986
955,15.952,0
956,15.969,0
957,15.985,0
958,16.002,0
959,16.019,0
960,16.035,0
961,16.052,0
962,16.069,0
963,16.085,0
964,16.102,0
965,16.119,0
966,16.135,0
967,16.152,0
968,16.168,0
969,16.185,0
970,16.202,0
971,16.218,0
972,16.235,0
973,16.252,0
974,16.268,0.0988723310917135
975,16.285,0
976,16.301,0
977,16.318,0
978,16.335,0
979,16.351,0
980,16.368,0
981,16.385,0
982,16.401,0.101990384365831
983,16.418,0
984,16.435,0
985,16.451,0
986,16.468,0
987,16.484,0
988,16.501,0
989,16.518,0
990,16.534,0
991,16.551,0
992,16.568,0
993,16.584,0
994,16.601,0
995,16.618,0
996,16.634,0
997,16.651,0
998,16.667,0
999,16.684,0
1000,16.701,0
1001,16.717,0
1002,16.734,0
1003,16.751,0
1004,16.767,0
1005,16.784,0
1006,16.800,0
1007,16.817,0
1008,16.834,0
1009,16.850,0
1010,16.867,0.102349469546792
1011,16.884,0
1012,16.900,0.0677108724653589
1013,16.917,0
1014,16.934,0.0761604722171685
1015,16.950,0.114533555180595
1016,16.967,0
1017,16.983,0
1018,17.000,0.0955579053946781
1019,17.017,0
1020,17.033,0
1021,17.050,0
1022,17.067,0
1023,17.083,0
1024,17.100,0.078555980835599
1025,17.117,0
1026,17.133,0
1027,17.150,0
1028,17.166,0
1029,17.183,0
1030,17.200,0
1031,17.216,0
1032,17.233,0
1033,17.250,0
1034,17.266,0
1035,17.283,0
1036,17.299,0
1037,17.316,0.0638732044439177
1038,17.333,0
1039,17.349,0.0993863586029215
1040,17.366,0
1041,17.383,0
1042,17.399,0
1043,17.416,0
1044,17.433,0
1045,17.449,0
1046,17.466,0
1047,17.482,0.147081290121589
1048,17.499,0.073690669167331
1049,17.516,0
1050,17.532,0
1051,17.549,0
1052,17.566,0
1053,17.582,0
1054,17.599,0.0663138912437206
1055,17.616,0.061422617204935
1056,17.632,0
1057,17.649,0
1058,17.665,0
1059,17.682,0
1060,17.699,0
1061,17.715,0
1062,17.732,0
1063,17.749,0
1064,17.765,0
1065,17.782,0
1066,17.798,0.102011657054632
1067,17.815,0
1068,17.832,0.156667036117294
1069,17.848,0
1070,17.865,0.0629676022218828
1071,17.882,0
1072,17.898,0
1073,17.915,0
1074,17.932,0
1075,17.948,0
1076,17.965,0
1077,17.981,0
1078,17.998,0
1079,18.015,0
1080,18.031,0
1081,18.048,0
1082,18.065,0
1083,18.081,0
1084,18.098,0
1085,18.115,0.0807503770701561
1086,18.131,0
1087,18.148,0
1088,18.164,0
1089,18.181,0
1090,18.198,0
1091,18.214,0
1092,18.231,0.0803871964166628
1093,18.248,0
1094,18.264,0
1095,18.281,0
1096,18.297,0.0976619544081701
1097,18.314,0
1098,18.331,0
1099,18.347,0
1100,18.364,0
1101,18.381,0
1102,18.397,0.116413285656143
1103,18.414,0
1104,18.431,0
1105,18.447,0
1106,18.464,0
1107,18.480,0
1108,18.497,0
1109,18.514,0.0615426748852191
1110,18.530,0
1111,18.547,0
1112,18.564,0
1113,18.580,0
1114,18.597,0
1115,18.614,0
1116,18.630,0
1117,18.647,0
1118,18.663,0
1119,18.680,0
1120,18.697,0
1121,18.713,0
1122,18.730,0
1123,18.747,0
1124,18.763,0
1125,18.780,0
1126,18.796,0
1127,18.813,0
1128,18.830,0
1129,18.846,0
1130,18.863,0.0815544883634988
1131,18.880,0
1132,18.896,0.067196191324048
1133,18.913,0
1134,18.930,0
1135,18.946,0
1136,18.963,0.0626683127682301
1137,18.979,0
1138,18.996,0
1139,19.013,0.0917049250596395
1140,19.029,0
1141,19.046,0.0854871658626825
1142,19.063,0
1143,19.079,0
1144,19.096,0
1145,19.113,0.0767356895618481
1146,19.129,0
1147,19.146,0.0639030200324539
1148,19.162,0.0676572473718885
1149,19.179,0
1150,19.196,0
1151,19.212,0.0706161759972686
1152,19.229,0
1153,19.246,0
1154,19.262,0
1155,19.279,0.155393325876375
1156,19.295,0
1157,19.312,0
1158,19.329,0
1159,19.345,0
1160,19.362,0
1161,19.379,0
1162,19.395,0
1163,19.412,0.161997183917983
1164,19.429,0
1165,19.445,0.140163525080393
1166,19.462,0
1167,19.478,0
1168,19.495,0
1169,19.512,0.1936066808402
1170,19.528,0
1171,19.545,0.0935551187678843
1172,19.562,0.092752744393696
1173,19.578,0.0784853887844947
1174,19.595,0
1175,19.612,0
1176,19.628,0.092304984919066
1177,19.645,0.088468907549903
1178,19.661,0
1179,19.678,0
1180,19.695,0.0865712685237053
1181,19.711,0
1182,19.728,0
1183,19.745,0
1184,19.761,0
1185,19.778,0
1186,19.794,0.11935597408743
1187,19.811,0
1188,19.828,0
1189,19.844,0
1190,19.861,0.0958949042773396
1191,19.878,0.069975947596978
1192,19.894,0
