#"+ BPC(1083.03666) Scan unstir_75_Ecoli-r019.d "
#Point,X(Minutes),Y(Counts)
0,0.062,0
1,0.078,0
2,0.095,0.151318878162864
3,0.112,0
4,0.128,0
5,0.145,0
6,0.162,0
7,0.178,0.129287126217625
8,0.195,0
9,0.211,0
10,0.228,0
11,0.245,0
12,0.261,0
13,0.278,0.123860292359112
14,0.295,0
15,0.311,0
16,0.328,0
17,0.344,0
18,0.361,0
19,0.378,0
20,0.394,0
21,0.411,0
22,0.428,0
23,0.444,0.19735305291326
24,0.461,0
25,0.478,0
26,0.494,0
27,0.511,0.138274968987042
28,0.527,0.12123896189298
29,0.544,0
30,0.561,0.112765995053708
31,0.577,0
32,0.594,0
33,0.611,0
34,0.627,0
35,0.644,0
36,0.661,0
37,0.677,0
38,0.694,0
39,0.710,0.128284301247416
40,0.727,0.184236552251403
41,0.744,0
42,0.760,0
43,0.777,0
44,0.794,0
45,0.810,0.249888359195812
46,0.827,0
47,0.843,0
48,0.860,0.146180058521798
49,0.877,0.105460618657614
50,0.893,0
51,0.910,0
52,0.927,0
53,0.943,0
54,0.960,0
55,0.977,0
56,0.993,0
57,1.010,0
58,1.027,0
59,1.043,0
60,1.060,0
61,1.076,0
62,1.093,0
63,1.110,0.221540508661222
64,1.126,0
65,1.143,0
66,1.160,0
67,1.176,0
68,1.193,0.133088490729332
69,1.209,0
70,1.226,0
71,1.243,0
72,1.259,0
73,1.276,0
74,1.293,0
75,1.309,0
76,1.326,0.164585447908557
77,1.343,0
78,1.359,0
79,1.376,0
80,1.392,0
81,1.409,0
82,1.426,0
83,1.442,0.167637547729853
84,1.459,0
85,1.476,0
86,1.492,0
87,1.509,0
88,1.526,0
89,1.542,0
90,1.559,0
91,1.575,0
92,1.592,0
93,1.609,0
94,1.625,0.141287325388327
95,1.642,0
96,1.659,0
97,1.675,0
98,1.692,0
99,1.708,0
100,1.725,0.108780716381798
101,1.742,0
102,1.758,0
103,1.775,0
104,1.792,0
105,1.808,0
106,1.825,0
107,1.842,0
108,1.858,0
109,1.875,0
110,1.891,0
111,1.908,0
112,1.925,0
113,1.941,0
114,1.958,0
115,1.975,0
116,1.991,0.119085442380096
117,2.008,0
118,2.025,0
119,2.041,0.151653264777502
120,2.058,0
121,2.074,0
122,2.091,0
123,2.108,0.142217665423226
124,2.124,0
125,2.141,0
126,2.158,0
127,2.174,0.18982213907775
128,2.191,0
129,2.207,0.105390805101166
130,2.224,0
131,2.241,0
132,2.257,0
133,2.274,0
134,2.291,0
135,2.307,0
136,2.324,0
137,2.341,0
138,2.357,0
139,2.374,0
140,2.390,0
141,2.407,0
142,2.424,0
143,2.440,0
144,2.457,0
145,2.474,0
146,2.490,0
147,2.507,0
148,2.524,0.103600585502925
149,2.540,0
150,2.557,0
151,2.573,0
152,2.590,0
153,2.607,0
154,2.623,0
155,2.640,0
156,2.657,0
157,2.673,0
158,2.690,0
159,2.706,0
160,2.723,0.179602646047799
161,2.740,0
162,2.756,0.119209901236368
163,2.773,0
164,2.790,0
165,2.806,0.146571799868954
166,2.823,0
167,2.840,0
168,2.856,0
169,2.873,0
170,2.889,0
171,2.906,0
172,2.923,0.166643140266831
173,2.939,0
174,2.956,0
175,2.973,0
176,2.989,0.199031881340438
177,3.006,0.148438462000821
178,3.023,0.136044816671382
179,3.039,0
180,3.056,0
181,3.072,0
182,3.089,0
183,3.106,0
184,3.122,0
185,3.139,0
186,3.156,0
187,3.172,0
188,3.189,0
189,3.205,0
190,3.222,0
191,3.239,0
192,3.255,0.130735805081196
193,3.272,0
194,3.289,0
195,3.305,0
196,3.322,0
197,3.339,0
198,3.355,0
199,3.372,0.115277075963676
200,3.388,0
201,3.405,0.175681214091797
202,3.422,0
203,3.438,0
204,3.455,0
205,3.472,0
206,3.488,0
207,3.505,0
208,3.522,0
209,3.538,0
210,3.555,0
211,3.571,0
212,3.588,0.1513899474957
213,3.605,0.107406623024951
214,3.621,0
215,3.638,0
216,3.655,0.125277919297434
217,3.671,0
218,3.688,0
219,3.704,0
220,3.721,0
221,3.738,0
222,3.754,0
223,3.771,0.207718139896644
224,3.788,0
225,3.804,0
226,3.821,0
227,3.838,0
228,3.854,0
229,3.871,0
230,3.887,0
231,3.904,0
232,3.921,0
233,3.937,0
234,3.954,0.181579359855915
235,3.971,0
236,3.987,0
237,4.004,0.106812351583975
238,4.021,0
239,4.037,0
240,4.054,0
241,4.070,0
242,4.087,0
243,4.104,0
244,4.120,0.131261846005052
245,4.137,0
246,4.154,0
247,4.170,0.12371868644706
248,4.187,0
249,4.203,0
250,4.220,0.153249166298427
251,4.237,0
252,4.253,0
253,4.270,0
254,4.287,0
255,4.303,0
256,4.320,0
257,4.337,0
258,4.353,0
259,4.370,0
260,4.386,0.168754579854544
261,4.403,0
262,4.420,0
263,4.436,0
264,4.453,0
265,4.470,0
266,4.486,0
267,4.503,0
268,4.520,0
269,4.536,0.186922498120811
270,4.553,0
271,4.569,0
272,4.586,0.185878879444882
273,4.603,0
274,4.619,0
275,4.636,0
276,4.653,0
277,4.669,0
278,4.686,0
279,4.702,0.115679540880115
280,4.719,0
281,4.736,0.102768020978729
282,4.752,0
283,4.769,0
284,4.786,0
285,4.802,0
286,4.819,0.106037332061446
287,4.836,0
288,4.852,0
289,4.869,0
290,4.885,0
291,4.902,0
292,4.919,0
293,4.935,0.131272440191313
294,4.952,0
295,4.969,0
296,4.985,0
297,5.002,0
298,5.019,0
299,5.035,0.136096935196897
300,5.052,0.116598913801219
301,5.068,0
302,5.085,0
303,5.102,0
304,5.118,0
305,5.135,0
306,5.152,0
307,5.168,0
308,5.185,0
309,5.201,0
310,5.218,0
311,5.235,0.122215856983454
312,5.251,0
313,5.268,0
314,5.285,0.201993717477066
315,5.301,0
316,5.318,0
317,5.335,0
318,5.351,0
319,5.368,0
320,5.384,0.113446405144186
321,5.401,0
322,5.418,0
323,5.434,0
324,5.451,0.125388123189003
325,5.468,0
326,5.484,0
327,5.501,0
328,5.518,0
329,5.534,0
330,5.551,0.138994353810166
331,5.567,0
332,5.584,0
333,5.601,0.115028576843262
334,5.617,0
335,5.634,0
336,5.651,0
337,5.667,0
338,5.684,0
339,5.700,0
340,5.717,0
341,5.734,0
342,5.750,0
343,5.767,0
344,5.784,0
345,5.800,0
346,5.817,0
347,5.834,0
348,5.850,0
349,5.867,0
350,5.883,0
351,5.900,0
352,5.917,0.111948271523198
353,5.933,0
354,5.950,0
355,5.967,0
356,5.983,0.117284232835762
357,6.000,0
358,6.017,0.15690093359379
359,6.033,0
360,6.050,0
361,6.066,0
362,6.083,0
363,6.100,0
364,6.116,0
365,6.133,0
366,6.150,0
367,6.166,0.121254350861816
368,6.183,0
369,6.199,0
370,6.216,0
371,6.233,0
372,6.249,0
373,6.266,0
374,6.283,0
375,6.299,0
376,6.316,0
377,6.333,0
378,6.349,0
379,6.366,0
380,6.382,0
381,6.399,0.100401103198188
382,6.416,0
383,6.432,0
384,6.449,0.153811023487043
385,6.466,0
386,6.482,0
387,6.499,0
388,6.516,0.139452141384603
389,6.532,0.118171792755018
390,6.549,0
391,6.565,0
392,6.582,0
393,6.599,0
394,6.615,0
395,6.632,0.113989791003739
396,6.649,0.134069625016464
397,6.665,0.146485752548645
398,6.682,0
399,6.698,0
400,6.715,0
401,6.732,0.106952930042618
402,6.748,0.176114388449015
403,6.765,0
404,6.782,0
405,6.798,0.121437465891591
406,6.815,0
407,6.832,0.133972085439506
408,6.848,0.232107935469277
409,6.865,0
410,6.881,0
411,6.898,0
412,6.915,0.113966737993548
413,6.931,0
414,6.948,0
415,6.965,0
416,6.981,0.141878027380053
417,6.998,0
418,7.014,0
419,7.031,0
420,7.048,0.114288224359829
421,7.064,0.1364576702834
422,7.081,0
423,7.098,0.116765338421173
424,7.114,0
425,7.131,0.161234488528274
426,7.148,0
427,7.164,0.182681733645304
428,7.181,0
429,7.197,0.109572083829677
430,7.214,0.130349924023854
431,7.231,0
432,7.247,0
433,7.264,0
434,7.281,0
435,7.297,0
436,7.314,0
437,7.331,0
438,7.347,0
439,7.364,0.162441312470141
440,7.380,0
441,7.397,0
442,7.414,0
443,7.430,0
444,7.447,0
445,7.464,0
446,7.480,0
447,7.497,0
448,7.513,0
449,7.530,0
450,7.547,0
451,7.563,0
452,7.580,0.116903960912957
453,7.597,0
454,7.613,0
455,7.630,0
456,7.647,0
457,7.663,0.167181373637807
458,7.680,0
459,7.696,0
460,7.713,0
461,7.730,0
462,7.746,0
463,7.763,0
464,7.780,0
465,7.796,0
466,7.813,0
467,7.830,0
468,7.846,0
469,7.863,0.171188472375818
470,7.879,0.122187255724855
471,7.896,0
472,7.913,0
473,7.929,0
474,7.946,0.119288025749279
475,7.963,0
476,7.979,0
477,7.996,0
478,8.012,0
479,8.029,0
480,8.046,0
481,8.062,0
482,8.079,0
483,8.096,0.149004002800177
484,8.112,0.116747765162497
485,8.129,0
486,8.146,0
487,8.162,0
488,8.179,0.151635623021931
489,8.195,0
490,8.212,0
491,8.229,0
492,8.245,0
493,8.262,0
494,8.279,0
495,8.295,0
496,8.312,0
497,8.329,0
498,8.345,0.100090629610298
499,8.362,0
500,8.378,0
501,8.395,0.132196585062694
502,8.412,0
503,8.428,0
504,8.445,0.121926510881958
505,8.462,0.154436811109994
506,8.478,0
507,8.495,0
508,8.511,0
509,8.528,0.146084786953106
510,8.545,0
511,8.561,0
512,8.578,0.177194462694047
513,8.595,0.128255699988816
514,8.611,0
515,8.628,0
516,8.645,0
517,8.661,0
518,8.678,0
519,8.694,0
520,8.711,0
521,8.728,0.105149300274699
522,8.744,0
523,8.761,0
524,8.778,0
525,8.794,0.135370046158504
526,8.811,0
527,8.828,0
528,8.844,0
529,8.861,0
530,8.877,0
531,8.894,0
532,8.911,0
533,8.927,0
534,8.944,0
535,8.961,0
536,8.977,0
537,8.994,0
538,9.010,0.113227428185056
539,9.027,0
540,9.044,0
541,9.060,0
542,9.077,0
543,9.094,0
544,9.110,0.150591623807703
545,9.127,0
546,9.144,0
547,9.160,0
548,9.177,0
549,9.193,0
550,9.210,0
551,9.227,0
552,9.243,0
553,9.260,0
554,9.277,0
555,9.293,0
556,9.310,0
557,9.327,0
558,9.343,0
559,9.360,0
560,9.376,0
561,9.393,0
562,9.410,0.104719489876049
563,9.426,0
564,9.443,0
565,9.460,0
566,9.476,0
567,9.493,0
568,9.509,0
569,9.526,0
570,9.543,0
571,9.559,0
572,9.576,0
573,9.593,0
574,9.609,0
575,9.626,0
576,9.643,0
577,9.659,0
578,9.676,0
579,9.692,0
580,9.709,0
581,9.726,0
582,9.742,0
583,9.759,0
584,9.776,0
585,9.792,0
586,9.809,0
587,9.826,0
588,9.842,0
589,9.859,0
590,9.875,0
591,9.892,0
592,9.909,0
593,9.925,0
594,9.942,0
595,9.959,0
596,9.975,0
597,9.992,0
598,10.008,0
599,10.025,0
600,10.042,0
601,10.058,0
602,10.075,0
603,10.092,0
604,10.108,0
605,10.125,0
606,10.142,0
607,10.158,0
608,10.175,0
609,10.191,0
610,10.208,0
611,10.225,0
612,10.241,0
613,10.258,0
614,10.275,0
615,10.291,0
616,10.308,0
617,10.325,0
618,10.341,0
619,10.358,0
620,10.374,0
621,10.391,0
622,10.408,0
623,10.424,0
624,10.441,0
625,10.458,0
626,10.474,0
627,10.491,0
628,10.507,0
629,10.524,0
630,10.541,0
631,10.557,0
632,10.574,0
633,10.591,0
634,10.607,0
635,10.624,0
636,10.641,0
637,10.657,0
638,10.674,0
639,10.690,0
640,10.707,0
641,10.724,0
642,10.740,0
643,10.757,0
644,10.774,0
645,10.790,0
646,10.807,0
647,10.824,0
648,10.840,0
649,10.857,0
650,10.873,0
651,10.890,0
652,10.907,0
653,10.923,0
654,10.940,0
655,10.957,0
656,10.973,0
657,10.990,0
658,11.006,0
659,11.023,0
660,11.040,0
661,11.056,0
662,11.073,0
663,11.090,0
664,11.106,0
665,11.123,0
666,11.140,0
667,11.156,0
668,11.173,0
669,11.189,0
670,11.206,0
671,11.223,0
672,11.239,0
673,11.256,0
674,11.273,0
675,11.289,0
676,11.306,0.112902897512378
677,11.323,0
678,11.339,0
679,11.356,0
680,11.372,0
681,11.389,0
682,11.406,0
683,11.422,0
684,11.439,0
685,11.456,0
686,11.472,0
687,11.489,0
688,11.505,0
689,11.522,0
690,11.539,0
691,11.555,0
692,11.572,0
693,11.589,0
694,11.605,0
695,11.622,0
696,11.639,0
697,11.655,0
698,11.672,0
699,11.688,0
700,11.705,0
701,11.722,0
702,11.738,0
703,11.755,0
704,11.772,0
705,11.788,0
706,11.805,0
707,11.822,0
708,11.838,0
709,11.855,0
710,11.871,0
711,11.888,0
712,11.905,0
713,11.921,0
714,11.938,0
715,11.955,0
716,11.971,0
717,11.988,0
718,12.004,0
719,12.021,0
720,12.038,0
721,12.054,0
722,12.071,0
723,12.088,0
724,12.104,0
725,12.121,0
726,12.138,0
727,12.154,0
728,12.171,0
729,12.187,0
730,12.204,0
731,12.221,0
732,12.237,0
733,12.254,0
734,12.271,0
735,12.287,0
736,12.304,0
737,12.321,0.132615907825806
738,12.337,0
739,12.354,0
740,12.370,0
741,12.387,0
742,12.404,0
743,12.420,0
744,12.437,0
745,12.454,0.118079869923363
746,12.470,0
747,12.487,0
748,12.503,0
749,12.520,0
750,12.537,0
751,12.553,0.104666891872277
752,12.570,0
753,12.587,0
754,12.603,0
755,12.620,0
756,12.637,0
757,12.653,0
758,12.670,0
759,12.686,0
760,12.703,0
761,12.720,0
762,12.736,0
763,12.753,0
764,12.770,0
765,12.786,0
766,12.803,0
767,12.820,0
768,12.836,0
769,12.853,0
770,12.869,0
771,12.886,0
772,12.903,0
773,12.919,0
774,12.936,0
775,12.953,0
776,12.969,0
777,12.986,0
778,13.002,0
779,13.019,0
780,13.036,0
781,13.052,0
782,13.069,0
783,13.086,0
784,13.102,0
785,13.119,0
786,13.136,0
787,13.152,0
788,13.169,0
789,13.185,0
790,13.202,0
791,13.219,0
792,13.235,0
793,13.252,0
794,13.269,0
795,13.285,0
796,13.302,0
797,13.319,0
798,13.335,0
799,13.352,0
800,13.368,0
801,13.385,0
802,13.402,0
803,13.418,0
804,13.435,0
805,13.452,0
806,13.468,0
807,13.485,0
808,13.501,0
809,13.518,0
810,13.535,0
811,13.551,0
812,13.568,0
813,13.585,0
814,13.601,0
815,13.618,0
816,13.635,0
817,13.651,0.173287064990535
818,13.668,0
819,13.684,0
820,13.701,0
821,13.718,0
822,13.734,0
823,13.751,0
824,13.768,0
825,13.784,0
826,13.801,0
827,13.818,0
828,13.834,0
829,13.851,0.106850968610619
830,13.867,0
831,13.884,0
832,13.901,0
833,13.917,0
834,13.934,0
835,13.951,0
836,13.967,0
837,13.984,0.131783168253992
838,14.000,0.114730805623813
839,14.017,0
840,14.034,0
841,14.050,0
842,14.067,0
843,14.084,0
844,14.100,0
845,14.117,0
846,14.134,0
847,14.150,0.105747658697013
848,14.167,0
849,14.183,0
850,14.200,0
851,14.217,0
852,14.233,0
853,14.250,0.118034007447494
854,14.267,0.101382998561918
855,14.283,0
856,14.300,0
857,14.317,0
858,14.333,0
859,14.350,0.170453196273301
860,14.366,0
861,14.383,0
862,14.400,0
863,14.416,0
864,14.433,0
865,14.450,0
866,14.466,0
867,14.483,0
868,14.499,0
869,14.516,0
870,14.533,0
871,14.549,0
872,14.566,0
873,14.583,0
874,14.599,0
875,14.616,0
876,14.633,0
877,14.649,0
878,14.666,0
879,14.682,0
880,14.699,0
881,14.716,0
882,14.732,0
883,14.749,0
884,14.766,0.180559091010051
885,14.782,0
886,14.799,0
887,14.816,0
888,14.832,0
889,14.849,0
890,14.865,0
891,14.882,0
892,14.899,0
893,14.915,0
894,14.932,0
895,14.949,0.130867182123755
896,14.965,0
897,14.982,0
898,14.998,0
899,15.015,0
900,15.032,0
901,15.048,0
902,15.065,0
903,15.082,0
904,15.098,0
905,15.115,0
906,15.132,0
907,15.148,0
908,15.165,0.130572006175509
909,15.181,0
910,15.198,0
911,15.215,0
912,15.231,0
913,15.248,0
914,15.265,0
915,15.281,0
916,15.298,0
917,15.315,0
918,15.331,0
919,15.348,0
920,15.364,0
921,15.381,0.12971375531609
922,15.398,0
923,15.414,0
924,15.431,0
925,15.448,0
926,15.464,0
927,15.481,0
928,15.497,0
929,15.514,0
930,15.531,0
931,15.547,0
932,15.564,0
933,15.581,0
934,15.597,0
935,15.614,0
936,15.631,0
937,15.647,0
938,15.664,0.201651887533288
939,15.680,0
940,15.697,0
941,15.714,0.102770509699209
942,15.730,0
943,15.747,0
944,15.764,0
945,15.780,0
946,15.797,0
947,15.814,0
948,15.830,0.117213102616798
949,15.847,0
950,15.863,0
951,15.880,0
952,15.897,0
953,15.913,0
954,15.930,0
955,15.947,0
956,15.963,0
957,15.980,0
958,15.996,0
959,16.013,0
960,16.030,0
961,16.046,0
962,16.063,0
963,16.080,0
964,16.096,0.143338152835676
965,16.113,0.124045576457195
966,16.130,0
967,16.146,0.128315733710964
968,16.163,0
969,16.179,0
970,16.196,0.202191688722058
971,16.213,0.184017088203249
972,16.229,0
973,16.246,0
974,16.263,0
975,16.279,0
976,16.296,0
977,16.313,0
978,16.329,0
979,16.346,0
980,16.362,0
981,16.379,0.189012764557532
982,16.396,0.210116855457501
983,16.412,0
984,16.429,0
985,16.446,0
986,16.462,0.110181911676342
987,16.479,0
988,16.495,0
989,16.512,0
990,16.529,0
991,16.545,0
992,16.562,0.172091413653144
993,16.579,0.139784518757019
994,16.595,0
995,16.612,0
996,16.629,0.259617414465219
997,16.645,0
998,16.662,0.193235354523849
999,16.678,0.19094285481318
1000,16.695,0
1001,16.712,0
1002,16.728,0
1003,16.745,0
1004,16.762,0.112860931748696
1005,16.778,0
1006,16.795,0
1007,16.812,0
1008,16.828,0
1009,16.845,0
1010,16.861,0
1011,16.878,0
1012,16.895,0
1013,16.911,0
1014,16.928,0.152797878318148
1015,16.945,0.152646987271584
1016,16.961,0
1017,16.978,0
1018,16.994,0
1019,17.011,0
1020,17.028,0.106916504916579
1021,17.044,0
1022,17.061,0
1023,17.078,0
1024,17.094,0
1025,17.111,0.161064783668178
1026,17.128,0
1027,17.144,0
1028,17.161,0
1029,17.177,0
1030,17.194,0
1031,17.211,0.211253751681431
1032,17.227,0
1033,17.244,0.190147453659325
1034,17.261,0.159454132482759
1035,17.277,0
1036,17.294,0
1037,17.311,0
1038,17.327,0
1039,17.344,0
1040,17.360,0
1041,17.377,0
1042,17.394,0
1043,17.410,0.133785043254479
1044,17.427,0
1045,17.444,0
1046,17.460,0.127583844399314
1047,17.477,0
1048,17.493,0
1049,17.510,0
1050,17.527,0
1051,17.543,0
1052,17.560,0
1053,17.577,0
1054,17.593,0
1055,17.610,0
1056,17.627,0
1057,17.643,0
1058,17.660,0
1059,17.676,0
1060,17.693,0
1061,17.710,0
1062,17.726,0
1063,17.743,0
1064,17.760,0
1065,17.776,0
1066,17.793,0
1067,17.810,0
1068,17.826,0.10289020421597
1069,17.843,0
1070,17.859,0
1071,17.876,0
1072,17.893,0.153623981302016
1073,17.909,0
1074,17.926,0
1075,17.943,0
1076,17.959,0
1077,17.976,0
1078,17.992,0
1079,18.009,0
1080,18.026,0
1081,18.042,0
1082,18.059,0
1083,18.076,0
1084,18.092,0
1085,18.109,0
1086,18.126,0.141723422279686
1087,18.142,0
1088,18.159,0
1089,18.175,0
1090,18.192,0
1091,18.209,0
1092,18.225,0
1093,18.242,0
1094,18.259,0
1095,18.275,0
1096,18.292,0
1097,18.309,0
1098,18.325,0
1099,18.342,0
1100,18.358,0
1101,18.375,0
1102,18.392,0
1103,18.408,0
1104,18.425,0
1105,18.442,0
1106,18.458,0
1107,18.475,0
1108,18.491,0
1109,18.508,0
1110,18.525,0.107982240478481
1111,18.541,0
1112,18.558,0
1113,18.575,0
1114,18.591,0
1115,18.608,0
1116,18.625,0
1117,18.641,0
1118,18.658,0
1119,18.674,0
1120,18.691,0
1121,18.708,0
1122,18.724,0
1123,18.741,0
1124,18.758,0
1125,18.774,0.104245772968391
1126,18.791,0
1127,18.808,0
1128,18.824,0
1129,18.841,0
1130,18.857,0
1131,18.874,0
1132,18.891,0
1133,18.907,0
1134,18.924,0
1135,18.941,0
1136,18.957,0
1137,18.974,0
1138,18.990,0
1139,19.007,0
1140,19.024,0
1141,19.040,0
1142,19.057,0
1143,19.074,0
1144,19.090,0
1145,19.107,0
1146,19.124,0
1147,19.140,0
1148,19.157,0
1149,19.173,0
1150,19.190,0
1151,19.207,0
1152,19.223,0
1153,19.240,0
1154,19.257,0
1155,19.273,0.128466457320675
1156,19.290,0
1157,19.307,0
1158,19.323,0
1159,19.340,0.103292631078579
1160,19.356,0
1161,19.373,0
1162,19.390,0
1163,19.406,0
1164,19.423,0
1165,19.440,0
1166,19.456,0
1167,19.473,0.151582606426029
1168,19.489,0
1169,19.506,0
1170,19.523,0
1171,19.539,0
1172,19.556,0
1173,19.573,0
1174,19.589,0
1175,19.606,0
1176,19.623,0
1177,19.639,0
1178,19.656,0
1179,19.672,0
1180,19.689,0
1181,19.706,0
1182,19.722,0.116847222652484
1183,19.739,0
1184,19.756,0.119331955090587
1185,19.772,0
1186,19.789,0.107778203452994
1187,19.806,0.119973390448418
1188,19.822,0
1189,19.839,0.200546317222182
1190,19.855,0
1191,19.872,0
1192,19.889,0
1193,19.905,0
1194,19.922,0
1195,19.939,0
1196,19.955,0
1197,19.972,0
1198,19.988,0
1199,20.005,0
1200,20.022,0.111858959184278
1201,20.038,0
1202,20.055,0
1203,20.072,0
1204,20.088,0
1205,20.105,0
1206,20.122,0.138693424122831
1207,20.138,0.213179823452635
1208,20.155,0
1209,20.171,0.239242602384164
1210,20.188,0
1211,20.205,0
1212,20.221,0.141299502613915
1213,20.238,0.123110768902659
1214,20.255,0
1215,20.271,0
1216,20.288,0
1217,20.304,0.113064603457416
1218,20.321,0
1219,20.338,0.270079082069045
1220,20.354,0
1221,20.371,0.158225222097982
1222,20.388,0
1223,20.404,0.134662138370496
1224,20.421,0.111846576468008
1225,20.438,0.183777455625216
1226,20.454,0.12905254718821
1227,20.471,0
1228,20.487,0
1229,20.504,0.151788736412165
1230,20.521,0
1231,20.537,0
1232,20.554,0.138965661222375
1233,20.571,0
1234,20.587,0.26001180435894
1235,20.604,0.201233858600395
1236,20.621,0
1237,20.637,0
1238,20.654,0
1239,20.670,0
1240,20.687,0
1241,20.704,0
1242,20.720,0
1243,20.737,0
1244,20.754,0.347504104699201
1245,20.770,0.118237960754555
1246,20.787,0
1247,20.803,0
1248,20.820,0
1249,20.837,0
1250,20.853,0
1251,20.870,0
1252,20.887,0.169597380858999
1253,20.903,0
1254,20.920,0
1255,20.937,0
1256,20.953,0.102030788909353
1257,20.970,0
1258,20.986,0
1259,21.003,0.238562930537988
1260,21.020,0
1261,21.036,0.130447159170172
1262,21.053,0
1263,21.070,0
1264,21.086,0
1265,21.103,0
1266,21.120,0
1267,21.136,0
1268,21.153,0.12723184647217
1269,21.169,0
1270,21.186,0
1271,21.203,0
1272,21.219,0
1273,21.236,0
1274,21.253,0.121712290651573
1275,21.269,0.180563474811263
1276,21.286,0
1277,21.303,0
1278,21.319,0
1279,21.336,0
1280,21.352,0
1281,21.369,0
1282,21.386,0
1283,21.402,0
1284,21.419,0
1285,21.436,0
1286,21.452,0
1287,21.469,0
1288,21.485,0.144149156059816
1289,21.502,0.133479531886016
1290,21.519,0
1291,21.535,0
1292,21.552,0
1293,21.569,0
1294,21.585,0
1295,21.602,0
1296,21.619,0
1297,21.635,0.170215603380554
1298,21.652,0
1299,21.668,0
1300,21.685,0
1301,21.702,0
1302,21.718,0
1303,21.735,0
1304,21.752,0
1305,21.768,0
1306,21.785,0
1307,21.802,0.201567864676733
1308,21.818,0
1309,21.835,0
1310,21.851,0.161585299175923
1311,21.868,0.127594948506897
1312,21.885,0
1313,21.901,0.133666665400235
1314,21.918,0.125727464412302
1315,21.935,0
1316,21.951,0.145213795671415
1317,21.968,0.135095617158354
1318,21.984,0
1319,22.001,0
1320,22.018,0.105669929943934
1321,22.034,0
