#"+ BPC(1331.49046) Scan stir_50_Ecoli-r009.d "
#Point,X(Minutes),Y(Counts)
0,0.052,0
1,0.069,0
2,0.085,0
3,0.102,0
4,0.118,0.364746370365902
5,0.135,0
6,0.152,0
7,0.168,0
8,0.185,0
9,0.202,0
10,0.218,0
11,0.235,0
12,0.251,0.408801896717409
13,0.268,0.426840200312651
14,0.285,0
15,0.301,0
16,0.318,0
17,0.335,0
18,0.351,0
19,0.368,0
20,0.385,0
21,0.401,0
22,0.418,0
23,0.434,0
24,0.451,0
25,0.468,0
26,0.484,0
27,0.501,0
28,0.518,0
29,0.534,0
30,0.551,0
31,0.568,0
32,0.584,0
33,0.601,0
34,0.617,0
35,0.634,0
36,0.651,0
37,0.667,0
38,0.684,0
39,0.701,0
40,0.717,0
41,0.734,0
42,0.750,0
43,0.767,0
44,0.784,0
45,0.800,0
46,0.817,0
47,0.834,0
48,0.850,0
49,0.867,0
50,0.884,0
51,0.900,0.406167439183589
52,0.917,0
53,0.933,0
54,0.950,0
55,0.967,0
56,0.983,0
57,1.000,0
58,1.017,0
59,1.033,0
60,1.050,0
61,1.067,0
62,1.083,0
63,1.100,0.584338736130498
64,1.116,0
65,1.133,0
66,1.150,0
67,1.166,0
68,1.183,0
69,1.200,0
70,1.216,0
71,1.233,0
72,1.249,0
73,1.266,0
74,1.283,0
75,1.299,0
76,1.316,0
77,1.333,0
78,1.349,0
79,1.366,0
80,1.383,0
81,1.399,0
82,1.416,0
83,1.432,0
84,1.449,0
85,1.466,0.437974037907458
86,1.482,0
87,1.499,0
88,1.516,0
89,1.532,0
90,1.549,0
91,1.566,0
92,1.582,0
93,1.599,0
94,1.615,0
95,1.632,0
96,1.649,0
97,1.665,0
98,1.682,0
99,1.699,0
100,1.715,0
101,1.732,0
102,1.748,0
103,1.765,0
104,1.782,0.581509126552912
105,1.798,0
106,1.815,0
107,1.832,0
108,1.848,0
109,1.865,0
110,1.882,0
111,1.898,0
112,1.915,0
113,1.931,0
114,1.948,0
115,1.965,0
116,1.981,0
117,1.998,0
118,2.015,0
119,2.031,0
120,2.048,0
121,2.065,0
122,2.081,0
123,2.098,0
124,2.114,0
125,2.131,0
126,2.148,0
127,2.164,0
128,2.181,0
129,2.198,0
130,2.214,0
131,2.231,0
132,2.247,0
133,2.264,0
134,2.281,0
135,2.297,0
136,2.314,0
137,2.331,0
138,2.347,0
139,2.364,0
140,2.381,0
141,2.397,0
142,2.414,0
143,2.430,0
144,2.447,0
145,2.464,0
146,2.480,0
147,2.497,0
148,2.514,0
149,2.530,0
150,2.547,0
151,2.564,0
152,2.580,0
153,2.597,0
154,2.613,0
155,2.630,0
156,2.647,0
157,2.663,0
158,2.680,0
159,2.697,0
160,2.713,0
161,2.730,0
162,2.746,0
163,2.763,0
164,2.780,0
165,2.796,0
166,2.813,0
167,2.830,0
168,2.846,0
169,2.863,0
170,2.880,0
171,2.896,0
172,2.913,0
173,2.929,0
174,2.946,0
175,2.963,0
176,2.979,0
177,2.996,0.543195637777487
178,3.013,0
179,3.029,0
180,3.046,0
181,3.063,0
182,3.079,0
183,3.096,0
184,3.112,0
185,3.129,0
186,3.146,0
187,3.162,0
188,3.179,0
189,3.196,0
190,3.212,0
191,3.229,0
192,3.245,0
193,3.262,0
194,3.279,0
195,3.295,0
196,3.312,0
197,3.329,0
198,3.345,0
199,3.362,0
200,3.379,0
201,3.395,0
202,3.412,0
203,3.428,0
204,3.445,0
205,3.462,0
206,3.478,0
207,3.495,0
208,3.512,0
209,3.528,0
210,3.545,0
211,3.562,0
212,3.578,0
213,3.595,0
214,3.611,0
215,3.628,0
216,3.645,0
217,3.661,0
218,3.678,0
219,3.695,0
220,3.711,0
221,3.728,0
222,3.744,0
223,3.761,0
224,3.778,0
225,3.794,0
226,3.811,0
227,3.828,0
228,3.844,0
229,3.861,0.336993264001639
230,3.878,0
231,3.894,0
232,3.911,0
233,3.927,0
234,3.944,0
235,3.961,0
236,3.977,0
237,3.994,0
238,4.011,0
239,4.027,0
240,4.044,0.391912119458648
241,4.061,0
242,4.077,0
243,4.094,0
244,4.110,0
245,4.127,0
246,4.144,0
247,4.160,0
248,4.177,0
249,4.194,0
250,4.210,0
251,4.227,0
252,4.243,0.593377992485964
253,4.260,0
254,4.277,0.343060562905414
255,4.293,0
256,4.310,0
257,4.327,0
258,4.343,0
259,4.360,0
260,4.377,0
261,4.393,0
262,4.410,0
263,4.426,0
264,4.443,0
265,4.460,0
266,4.476,0
267,4.493,0
268,4.510,0
269,4.526,0
270,4.543,0
271,4.560,0
272,4.576,0
273,4.593,0
274,4.609,0
275,4.626,0
276,4.643,0
277,4.659,0.48333234436019
278,4.676,0
279,4.693,0
280,4.709,0
281,4.726,0
282,4.742,0
283,4.759,0
284,4.776,0
285,4.792,0
286,4.809,0
287,4.826,0
288,4.842,0
289,4.859,0
290,4.876,0
291,4.892,0
292,4.909,0
293,4.925,0
294,4.942,0
295,4.959,0
296,4.975,0
297,4.992,0
298,5.009,0
299,5.025,0
300,5.042,0.353864766550019
301,5.059,0
302,5.075,0
303,5.092,0
304,5.108,0
305,5.125,0
306,5.142,0
307,5.158,0
308,5.175,0
309,5.192,0
310,5.208,0
311,5.225,0
312,5.241,0
313,5.258,0.510659619079028
314,5.275,0
315,5.291,0
316,5.308,0.386450904057575
317,5.325,0
318,5.341,0
319,5.358,0
320,5.375,0
321,5.391,0
322,5.408,0
323,5.424,0
324,5.441,0
325,5.458,0
326,5.474,0.322364227637602
327,5.491,0
328,5.508,0
329,5.524,0
330,5.541,0
331,5.558,0
332,5.574,0
333,5.591,0
334,5.607,0
335,5.624,0
336,5.641,0
337,5.657,0
338,5.674,0
339,5.691,0.32735391273517
340,5.707,0
341,5.724,0
342,5.741,0
343,5.757,0
344,5.774,0
345,5.790,0
346,5.807,0
347,5.824,0
348,5.840,0
349,5.857,0
350,5.874,0.36323144678018
351,5.890,0
352,5.907,0
353,5.923,0
354,5.940,0
355,5.957,0
356,5.973,0
357,5.990,0.382606156894319
358,6.007,0
359,6.023,0
360,6.040,0
361,6.057,0
362,6.073,0
363,6.090,0
364,6.106,0
365,6.123,0
366,6.140,0
367,6.156,0
368,6.173,0
369,6.190,0
370,6.206,0
371,6.223,0
372,6.240,0
373,6.256,0
374,6.273,0
375,6.289,0
376,6.306,0
377,6.323,0
378,6.339,0
379,6.356,0
380,6.373,0
381,6.389,0
382,6.406,0
383,6.422,0
384,6.439,0
385,6.456,0
386,6.472,0
387,6.489,0
388,6.506,0
389,6.522,0
390,6.539,0
391,6.556,0
392,6.572,0
393,6.589,0
394,6.605,0.358354998347073
395,6.622,0
396,6.639,0
397,6.655,0
398,6.672,0
399,6.689,0
400,6.705,0
401,6.722,0
402,6.739,0
403,6.755,0
404,6.772,0
405,6.788,0
406,6.805,0
407,6.822,0
408,6.838,0
409,6.855,0
410,6.872,0
411,6.888,0
412,6.905,0
413,6.921,0
414,6.938,0
415,6.955,0
416,6.971,0
417,6.988,0
418,7.005,0
419,7.021,0
420,7.038,0
421,7.055,0
422,7.071,0
423,7.088,0
424,7.104,0
425,7.121,0
426,7.138,0
427,7.154,0.357235915919777
428,7.171,0
429,7.188,0
430,7.204,0
431,7.221,0
432,7.238,0
433,7.254,0
434,7.271,0
435,7.287,0
436,7.304,0
437,7.321,0
438,7.337,0
439,7.354,0
440,7.371,0.512778582441714
441,7.387,0
442,7.404,0
443,7.420,0
444,7.437,0
445,7.454,0
446,7.470,0
447,7.487,0
448,7.504,0
449,7.520,0
450,7.537,0
451,7.554,0
452,7.570,0
453,7.587,0.321194004538341
454,7.603,0
455,7.620,0.410767960877759
456,7.637,0
457,7.653,0
458,7.670,0
459,7.687,0
460,7.703,0
461,7.720,0
462,7.737,0
463,7.753,0.347874796524764
464,7.770,0
465,7.786,0
466,7.803,0.330434853050074
467,7.820,0
468,7.836,0
469,7.853,0
470,7.870,0
471,7.886,0
472,7.903,0
473,7.919,0
474,7.936,0
475,7.953,0
476,7.969,0
477,7.986,0
478,8.003,0
479,8.019,0
480,8.036,0
481,8.053,0
482,8.069,0
483,8.086,0
484,8.102,0
485,8.119,0
486,8.136,0
487,8.152,0
488,8.169,0
489,8.186,0
490,8.202,0
491,8.219,0.405057458465105
492,8.236,0
493,8.252,0
494,8.269,0
495,8.285,0
496,8.302,0
497,8.319,0
498,8.335,0
499,8.352,0
500,8.369,0
501,8.385,0
502,8.402,0
503,8.418,0
504,8.435,0
505,8.452,0
506,8.468,0
507,8.485,0
508,8.502,0
509,8.518,0
510,8.535,0
511,8.552,0
512,8.568,0
513,8.585,0
514,8.601,0
515,8.618,0
516,8.635,0
517,8.651,0
518,8.668,0
519,8.685,0
520,8.701,0
521,8.718,0
522,8.735,0
523,8.751,0
524,8.768,0
525,8.784,0
526,8.801,0
527,8.818,0
528,8.834,0
529,8.851,0
530,8.868,0
531,8.884,0
532,8.901,0
533,8.917,0
534,8.934,0
535,8.951,0
536,8.967,0
537,8.984,0
538,9.001,0
539,9.017,0
540,9.034,0
541,9.051,0
542,9.067,0
543,9.084,0
544,9.100,0
545,9.117,0
546,9.134,0
547,9.150,0
548,9.167,0
549,9.184,0
550,9.200,0
551,9.217,0
552,9.234,0
553,9.250,0
554,9.267,0
555,9.283,0
556,9.300,0
557,9.317,0
558,9.333,0
559,9.350,0
560,9.367,0
561,9.383,0
562,9.400,0
563,9.416,0
564,9.433,0
565,9.450,0
566,9.466,0
567,9.483,0
568,9.500,0
569,9.516,0
570,9.533,0
571,9.550,0
572,9.566,0
573,9.583,0
574,9.599,0
575,9.616,0
576,9.633,0
577,9.649,0
578,9.666,0
579,9.683,0.324151489560094
580,9.699,0
581,9.716,0
582,9.733,0
583,9.749,0
584,9.766,0
585,9.782,0
586,9.799,0
587,9.816,0
588,9.832,0
589,9.849,0
590,9.866,0
591,9.882,0
592,9.899,0
593,9.915,0
594,9.932,0
595,9.949,0
596,9.965,0
597,9.982,0
598,9.999,0
599,10.015,0
600,10.032,0
601,10.049,0
602,10.065,0
603,10.082,0
604,10.098,0
605,10.115,0
606,10.132,0
607,10.148,0
608,10.165,0
609,10.182,0
610,10.198,0
611,10.215,0
612,10.232,0
613,10.248,0
614,10.265,0
615,10.281,0
616,10.298,0
617,10.315,0
618,10.331,0
619,10.348,0
620,10.365,0
621,10.381,0
622,10.398,0
623,10.414,0
624,10.431,0
625,10.448,0
626,10.464,0
627,10.481,0
628,10.498,0
629,10.514,0
630,10.531,0
631,10.548,0
632,10.564,0
633,10.581,0
634,10.597,0
635,10.614,0
636,10.631,0
637,10.647,0
638,10.664,0
639,10.681,0
640,10.697,0
641,10.714,0
642,10.731,0
643,10.747,0
644,10.764,0
645,10.780,0
646,10.797,0
647,10.814,0
648,10.830,0
649,10.847,0
650,10.864,0
651,10.880,0
652,10.897,0
653,10.913,0
654,10.930,0
655,10.947,0
656,10.963,0
657,10.980,0
658,10.997,0
659,11.013,0
660,11.030,0
661,11.047,0
662,11.063,0
663,11.080,0
664,11.096,0
665,11.113,0
666,11.130,0
667,11.146,0
668,11.163,0
669,11.180,0
670,11.196,0
671,11.213,0.366016640969335
672,11.230,0
673,11.246,0
674,11.263,0
675,11.279,0
676,11.296,0
677,11.313,0
678,11.329,0
679,11.346,0
680,11.363,0
681,11.379,0.33790348241132
682,11.396,0
683,11.412,0
684,11.429,0
685,11.446,0
686,11.462,0
687,11.479,0
688,11.496,0
689,11.512,0
690,11.529,0
691,11.546,0
692,11.562,0
693,11.579,0
694,11.595,0.818466150639416
695,11.612,0.326484877775543
696,11.629,0
697,11.645,0
698,11.662,0
699,11.679,0
700,11.695,0
701,11.712,0
702,11.729,0
703,11.745,0
704,11.762,0
705,11.778,0
706,11.795,0
707,11.812,0
708,11.828,0
709,11.845,0
710,11.862,0
711,11.878,0
712,11.895,0
713,11.911,0
714,11.928,0
715,11.945,0
716,11.961,0
717,11.978,0
718,11.995,0
719,12.011,0
720,12.028,0
721,12.045,0
722,12.061,0
723,12.078,0
724,12.094,0
725,12.111,0
726,12.128,0
727,12.144,0
728,12.161,0
729,12.178,0
730,12.194,0
731,12.211,0
732,12.227,0
733,12.244,0
734,12.261,0
735,12.277,0
736,12.294,0.519550776611218
737,12.311,0
738,12.327,0
739,12.344,0.393338497438541
740,12.361,0
741,12.377,0.418952464589514
742,12.394,0
743,12.410,0
744,12.427,0
745,12.444,0
746,12.460,0
747,12.477,0
748,12.494,0
749,12.510,0.333554172633205
750,12.527,0
751,12.544,0
752,12.560,0
753,12.577,0
754,12.593,0
755,12.610,0
756,12.627,0.420939821520348
757,12.643,0
758,12.660,0
759,12.677,0
760,12.693,0
761,12.710,0
762,12.726,0.429943621610678
763,12.743,0
764,12.760,0
765,12.776,0
766,12.793,0
767,12.810,0.379208700496742
768,12.826,0
769,12.843,0
770,12.860,0
771,12.876,0
772,12.893,0
773,12.909,0
774,12.926,0
775,12.943,0
776,12.959,0.45948268286353
777,12.976,0
778,12.993,0
779,13.009,0
780,13.026,0
781,13.043,0
782,13.059,0
783,13.076,0
784,13.092,0
785,13.109,0
786,13.126,0
787,13.142,0
788,13.159,0
789,13.176,0
790,13.192,0
791,13.209,0
792,13.226,0
793,13.242,0
794,13.259,0
795,13.275,0
796,13.292,0
797,13.309,0.398698001837749
798,13.325,0
799,13.342,0
800,13.359,0
801,13.375,0
802,13.392,0
803,13.409,0
804,13.425,0
805,13.442,0
806,13.458,0
807,13.475,0.393617418473328
808,13.492,0
809,13.508,0
810,13.525,0.530153197985534
811,13.542,0
812,13.558,0.341958757089884
813,13.575,0
814,13.591,0
815,13.608,0
816,13.625,0
817,13.641,0
818,13.658,0
819,13.675,0
820,13.691,0
821,13.708,0
822,13.725,0
823,13.741,0
824,13.758,0
825,13.774,0
826,13.791,0
827,13.808,0
828,13.824,0
829,13.841,0
830,13.858,0.400255415907427
831,13.874,0
832,13.891,0
833,13.908,0
834,13.924,0
835,13.941,0
836,13.957,0
837,13.974,0
838,13.991,0
839,14.007,0.378163501131315
840,14.024,0
841,14.041,0
842,14.057,0
843,14.074,0
844,14.090,0
845,14.107,0
846,14.124,0
847,14.140,0
848,14.157,0
849,14.174,0
850,14.190,0
851,14.207,0
852,14.224,0.399282032113878
853,14.240,0
854,14.257,0
855,14.273,0.346861179851272
856,14.290,0
857,14.307,0
858,14.323,0
859,14.340,0
860,14.357,0
861,14.373,0
862,14.390,0
863,14.407,0
864,14.423,0
865,14.440,0
866,14.456,0.350833232116628
867,14.473,0
868,14.490,0
869,14.506,0
870,14.523,0
871,14.540,0
872,14.556,0
873,14.573,0
874,14.589,0
875,14.606,0
876,14.623,0.331367647499888
877,14.639,0
878,14.656,0
879,14.673,0
880,14.689,0
881,14.706,0
882,14.723,0
883,14.739,0
884,14.756,0
885,14.772,0
886,14.789,0
887,14.806,0
888,14.822,0
889,14.839,0
890,14.856,0
891,14.872,0
892,14.889,0
893,14.906,0
894,14.922,0
895,14.939,0.37829615319029
896,14.955,0
897,14.972,0
898,14.989,0
899,15.005,0
900,15.022,0
901,15.039,0
902,15.055,0.470149410305847
903,15.072,0
904,15.088,0
905,15.105,0
906,15.122,0
907,15.138,0
908,15.155,0
909,15.172,0
910,15.188,0
911,15.205,0
912,15.222,0
913,15.238,0
914,15.255,0
915,15.271,0
916,15.288,0
917,15.305,0
918,15.321,0
919,15.338,0
920,15.355,0
921,15.371,0
922,15.388,0
923,15.405,0
924,15.421,0
925,15.438,0
926,15.454,0
927,15.471,0
928,15.488,0
929,15.504,0
930,15.521,0
931,15.538,0
932,15.554,0
933,15.571,0
934,15.587,0
935,15.604,0
936,15.621,0
937,15.637,0
938,15.654,0
939,15.671,0
940,15.687,0
941,15.704,0
942,15.721,0
943,15.737,0
944,15.754,0
945,15.770,0
946,15.787,0
947,15.804,0
948,15.820,0
949,15.837,0
950,15.854,0
951,15.870,0
952,15.887,0
953,15.904,0
954,15.920,0
955,15.937,0
956,15.953,0
957,15.970,0
958,15.987,0
959,16.003,0
960,16.020,0
961,16.037,0.487126164729755
962,16.053,0
963,16.070,0
964,16.086,0
965,16.103,0
966,16.120,0
967,16.136,0
968,16.153,0
969,16.170,0
970,16.186,0
971,16.203,0
972,16.220,0
973,16.236,0
974,16.253,0
975,16.269,0
976,16.286,0
977,16.303,0
978,16.319,0
979,16.336,0
980,16.353,0
981,16.369,0
982,16.386,0
983,16.403,0
984,16.419,0.41812613399212
985,16.436,0
986,16.452,0.387975927450725
987,16.469,0
988,16.486,0
989,16.502,0
990,16.519,0
991,16.536,0
992,16.552,0
993,16.569,0
994,16.585,0
995,16.602,0
996,16.619,0
997,16.635,0
998,16.652,0
999,16.669,0
1000,16.685,0
1001,16.702,0
1002,16.719,0
1003,16.735,0
1004,16.752,0
1005,16.768,0
1006,16.785,0
1007,16.802,0
1008,16.818,0
1009,16.835,0
1010,16.852,0
1011,16.868,0
1012,16.885,0
1013,16.902,0
1014,16.918,0
1015,16.935,0
1016,16.951,0
1017,16.968,0
1018,16.985,0
1019,17.001,0
1020,17.018,0
1021,17.035,0
1022,17.051,0
1023,17.068,0
1024,17.084,0.335190127558296
1025,17.101,0.399954560467331
1026,17.118,0
1027,17.134,0
1028,17.151,0
1029,17.168,0
1030,17.184,0
1031,17.201,0
1032,17.218,0
1033,17.234,0
1034,17.251,0.529778245605294
1035,17.267,0
1036,17.284,0
1037,17.301,0
1038,17.317,0
1039,17.334,0
1040,17.351,0
1041,17.367,0
1042,17.384,0
1043,17.401,0
1044,17.417,0
1045,17.434,0
1046,17.450,0
1047,17.467,0
1048,17.484,0
1049,17.500,0
1050,17.517,0
1051,17.534,0
1052,17.550,0
1053,17.567,0
1054,17.583,0
1055,17.600,0
1056,17.617,0
1057,17.633,0
1058,17.650,0
1059,17.667,0
1060,17.683,0
1061,17.700,0
1062,17.717,0
1063,17.733,0
1064,17.750,0
1065,17.766,0
1066,17.783,0
1067,17.800,0
1068,17.816,0
1069,17.833,0.40806682085066
1070,17.850,0
1071,17.866,0
1072,17.883,0
1073,17.900,0
1074,17.916,0
1075,17.933,0
1076,17.949,0
1077,17.966,0
1078,17.983,0
1079,17.999,0
1080,18.016,0
1081,18.033,0.396203064231954
1082,18.049,0
1083,18.066,0
1084,18.082,0
1085,18.099,0
1086,18.116,0.403808599453421
1087,18.132,0
1088,18.149,0
1089,18.166,0
1090,18.182,0
1091,18.199,0
1092,18.216,0
1093,18.232,0
1094,18.249,0
1095,18.265,0
1096,18.282,0
1097,18.299,0
1098,18.315,0
1099,18.332,0
1100,18.349,0
1101,18.365,0
1102,18.382,0
1103,18.399,0
1104,18.415,0
1105,18.432,0
1106,18.448,0
1107,18.465,0
1108,18.482,0
1109,18.498,0
1110,18.515,0
1111,18.532,0
1112,18.548,0
1113,18.565,0
1114,18.581,0
1115,18.598,0
1116,18.615,0
1117,18.631,0
1118,18.648,0
1119,18.665,0
1120,18.681,0
1121,18.698,0
1122,18.715,0
1123,18.731,0
1124,18.748,0
1125,18.764,0
1126,18.781,0
1127,18.798,0
1128,18.814,0
1129,18.831,0
1130,18.848,0
1131,18.864,0
1132,18.881,0
1133,18.898,0
1134,18.914,0
1135,18.931,0.531542266088574
1136,18.947,0
1137,18.964,0
1138,18.981,0
1139,18.997,0
1140,19.014,0
1141,19.031,0
1142,19.047,0
1143,19.064,0
1144,19.080,0.530232332947265
1145,19.097,0
1146,19.114,0
1147,19.130,0
1148,19.147,0
1149,19.164,0
1150,19.180,0
1151,19.197,0
1152,19.214,0
1153,19.230,0
1154,19.247,0
1155,19.263,0.343248989665645
1156,19.280,0
1157,19.297,0
1158,19.313,0
1159,19.330,0
1160,19.347,0
1161,19.363,0
1162,19.380,0
1163,19.397,0
1164,19.413,0
1165,19.430,0
1166,19.446,0.328576108255244
1167,19.463,0.476237051409995
1168,19.480,0
1169,19.496,0
1170,19.513,0
1171,19.530,0
1172,19.546,0
1173,19.563,0
1174,19.579,0.328214083628512
1175,19.596,0
1176,19.613,0
1177,19.629,0
1178,19.646,0
1179,19.663,0
1180,19.679,0
1181,19.696,0
1182,19.713,0
1183,19.729,0
1184,19.746,0
1185,19.762,0.369301811272563
1186,19.779,0
1187,19.796,0
1188,19.812,0
1189,19.829,0
1190,19.846,0
1191,19.862,0
1192,19.879,0
1193,19.895,0
1194,19.912,0
1195,19.929,0
1196,19.945,0
1197,19.962,0
1198,19.979,0
1199,19.995,0
1200,20.012,0
1201,20.029,0.335498349916751
1202,20.045,0
1203,20.062,0
1204,20.078,0
1205,20.095,0
1206,20.112,0.426835162291063
1207,20.128,0
1208,20.145,0
1209,20.162,0
1210,20.178,0
1211,20.195,0
1212,20.212,0
1213,20.228,0
1214,20.245,0
1215,20.261,0
1216,20.278,0
1217,20.295,0
1218,20.311,0
1219,20.328,0
1220,20.345,0
1221,20.361,0
1222,20.378,0
1223,20.394,0
1224,20.411,0
1225,20.428,0
1226,20.444,0
1227,20.461,0
1228,20.478,0.401812829977106
1229,20.494,0
1230,20.511,0
1231,20.528,0
1232,20.544,0
1233,20.561,0
1234,20.577,0
1235,20.594,0
1236,20.611,0
1237,20.627,0
1238,20.644,0
1239,20.661,0
1240,20.677,0
1241,20.694,0
1242,20.711,0
1243,20.727,0
1244,20.744,0.458047654695628
1245,20.760,0
1246,20.777,0.449083635964438
1247,20.794,0
1248,20.810,0.534719784326744
1249,20.827,0
1250,20.844,0
1251,20.860,0
1252,20.877,0.347498014297061
1253,20.894,0
1254,20.910,0
1255,20.927,0
1256,20.943,0.332085779454411
1257,20.960,0
1258,20.977,0.45053743789203
1259,20.993,0
1260,21.010,0
1261,21.027,0
1262,21.043,0.573423006847633
1263,21.060,0
1264,21.077,0
1265,21.093,0
1266,21.110,0.344700819160257
1267,21.126,0
1268,21.143,0.322460686739605
1269,21.160,0
1270,21.176,0
1271,21.193,0
1272,21.210,0
1273,21.226,0
1274,21.243,0
1275,21.259,0.316164561845886
1276,21.276,0
1277,21.293,0.419328462596876
1278,21.309,0
1279,21.326,0
1280,21.343,0.640989767972072
1281,21.359,0
1282,21.376,0
1283,21.393,0
1284,21.409,0
1285,21.426,0
1286,21.442,0
1287,21.459,0
1288,21.476,0.39117963389545
1289,21.492,0.803440298782589
1290,21.509,0
1291,21.526,0.331368170313449
1292,21.542,0.756890405167354
1293,21.559,0.36950057548275
1294,21.576,0
1295,21.592,0
1296,21.609,0
1297,21.625,0
1298,21.642,0.534020164725131
1299,21.659,0
1300,21.675,0.403216536859854
1301,21.692,0
1302,21.709,0.474486053737234
1303,21.725,0
1304,21.742,0
1305,21.758,0
1306,21.775,0
1307,21.792,0
1308,21.808,0
1309,21.825,0.491162618120123
1310,21.842,0.47913909443003
1311,21.858,0.327238204588422
1312,21.875,0
1313,21.892,0
1314,21.908,0
1315,21.925,0
1316,21.941,0
1317,21.958,0
1318,21.975,0
1319,21.991,0
1320,22.008,0
1321,22.025,0.812625467650076
1322,22.041,0.751374436927894
1323,22.058,0
1324,22.075,1.06426162314546
1325,22.091,0.481308675651121
1326,22.108,0.902421833631189
1327,22.124,0
1328,22.141,0
1329,22.158,0.666983060125795
1330,22.174,0
1331,22.191,0.968728471488129
1332,22.208,0.985395862869448
1333,22.224,0
1334,22.241,0.594619199408256
1335,22.257,0
1336,22.274,1.22082194626386
1337,22.291,0.85423201646065
1338,22.307,0
1339,22.324,0
1340,22.341,0
1341,22.357,0.959161173436064
1342,22.374,0
1343,22.391,0
1344,22.407,0
1345,22.424,0
1346,22.440,0
1347,22.457,0
1348,22.474,0
1349,22.490,0
1350,22.507,0
1351,22.524,0
1352,22.540,0
1353,22.557,0.600851232112248
1354,22.574,0
1355,22.590,0.644721563641901
1356,22.607,0
1357,22.623,0
1358,22.640,0
1359,22.657,0
1360,22.673,0
1361,22.690,0.594743391393243
1362,22.707,0
1363,22.723,0.77387923183167
1364,22.740,0.633244570237063
1365,22.756,0.76959382412926
1366,22.773,0.830409303626633
1367,22.790,0.896459192496622
1368,22.806,0
1369,22.823,0.484528826958765
1370,22.840,0.912334188633505
1371,22.856,0
1372,22.873,0
1373,22.890,0.630176795318194
1374,22.906,0.825560635605016
1375,22.923,0.646576078399738
1376,22.939,0.34497370407484
1377,22.956,0
1378,22.973,0.491138901395857
1379,22.989,0
1380,23.006,0
1381,23.023,0.727508758324865
1382,23.039,0
1383,23.056,0
1384,23.073,0
1385,23.089,0
1386,23.106,0.676266803113782
1387,23.122,0.593131414599199
1388,23.139,0
1389,23.156,0.949926099637755
1390,23.172,0
1391,23.189,0
1392,23.206,0
1393,23.222,0.785572622522252
1394,23.239,1.47836846153771
1395,23.255,0
1396,23.272,0.791369294115457
1397,23.289,0
