#"+ BPC(1331.49046) Scan stir_75_Ecoli-r013.d "
#Point,X(Minutes),Y(Counts)
0,0.060,0
1,0.077,0
2,0.093,0
3,0.110,0
4,0.126,0
5,0.143,0
6,0.160,0
7,0.176,0
8,0.193,0
9,0.210,0
10,0.226,0
11,0.243,0
12,0.260,0
13,0.276,0.406700406131936
14,0.293,0
15,0.309,0
16,0.326,0
17,0.343,0
18,0.359,0
19,0.376,0
20,0.393,0
21,0.409,0
22,0.426,0
23,0.443,0
24,0.459,0
25,0.476,0
26,0.492,0
27,0.509,0
28,0.526,0
29,0.542,0
30,0.559,0
31,0.576,0
32,0.592,0
33,0.609,0
34,0.625,0
35,0.642,0
36,0.659,0
37,0.675,0
38,0.692,0
39,0.709,0
40,0.725,0
41,0.742,0
42,0.759,0
43,0.775,0
44,0.792,0
45,0.808,0
46,0.825,0
47,0.842,0
48,0.858,0
49,0.875,0
50,0.892,0
51,0.908,0
52,0.925,0
53,0.942,0
54,0.958,0
55,0.975,0
56,0.991,0
57,1.008,0
58,1.025,0
59,1.041,0
60,1.058,0
61,1.075,0.489684545604077
62,1.091,0
63,1.108,0
64,1.124,0
65,1.141,0
66,1.158,0
67,1.174,0
68,1.191,0
69,1.208,0
70,1.224,0
71,1.241,0
72,1.258,0
73,1.274,0
74,1.291,0
75,1.307,0
76,1.324,0
77,1.341,0
78,1.357,0
79,1.374,0
80,1.391,0
81,1.407,0
82,1.424,0
83,1.441,0
84,1.457,0
85,1.474,0
86,1.490,0
87,1.507,0
88,1.524,0
89,1.540,0.349693637192667
90,1.557,0
91,1.574,0
92,1.590,0
93,1.607,0
94,1.623,0
95,1.640,0
96,1.657,0
97,1.673,0
98,1.690,0
99,1.707,0
100,1.723,0
101,1.740,0
102,1.757,0
103,1.773,0
104,1.790,0
105,1.806,0
106,1.823,0
107,1.840,0
108,1.856,0
109,1.873,0
110,1.890,0
111,1.906,0
112,1.923,0
113,1.940,0
114,1.956,0
115,1.973,0
116,1.989,0
117,2.006,0
118,2.023,0
119,2.039,0
120,2.056,0
121,2.073,0
122,2.089,0
123,2.106,0
124,2.122,0
125,2.139,0
126,2.156,0
127,2.172,0
128,2.189,0
129,2.206,0
130,2.222,0
131,2.239,0
132,2.256,0
133,2.272,0
134,2.289,0
135,2.305,0
136,2.322,0
137,2.339,0
138,2.355,0
139,2.372,0
140,2.389,0
141,2.405,0
142,2.422,0
143,2.439,0
144,2.455,0
145,2.472,0
146,2.488,0
147,2.505,0
148,2.522,0
149,2.538,0
150,2.555,0
151,2.572,0
152,2.588,0
153,2.605,0
154,2.621,0
155,2.638,0
156,2.655,0
157,2.671,0
158,2.688,0
159,2.705,0
160,2.721,0
161,2.738,0
162,2.755,0
163,2.771,0
164,2.788,0
165,2.804,0
166,2.821,0
167,2.838,0
168,2.854,0
169,2.871,0
170,2.888,0
171,2.904,0
172,2.921,0
173,2.937,0
174,2.954,0
175,2.971,0
176,2.987,0
177,3.004,0
178,3.021,0.367481665810631
179,3.037,0
180,3.054,0
181,3.071,0
182,3.087,0
183,3.104,0
184,3.120,0
185,3.137,0
186,3.154,0
187,3.170,0
188,3.187,0
189,3.204,0
190,3.220,0
191,3.237,0
192,3.254,0
193,3.270,0
194,3.287,0
195,3.303,0
196,3.320,0
197,3.337,0
198,3.353,0
199,3.370,0
200,3.387,0
201,3.403,0
202,3.420,0
203,3.436,0
204,3.453,0
205,3.470,0
206,3.486,0
207,3.503,0
208,3.520,0
209,3.536,0
210,3.553,0
211,3.570,0
212,3.586,0
213,3.603,0
214,3.619,0
215,3.636,0
216,3.653,0
217,3.669,0
218,3.686,0
219,3.703,0
220,3.719,0
221,3.736,0
222,3.753,0
223,3.769,0
224,3.786,0
225,3.802,0
226,3.819,0
227,3.836,0
228,3.852,0
229,3.869,0
230,3.886,0
231,3.902,0.379653903061863
232,3.919,0
233,3.935,0
234,3.952,0
235,3.969,0
236,3.985,0
237,4.002,0
238,4.019,0
239,4.035,0
240,4.052,0
241,4.069,0
242,4.085,0
243,4.102,0
244,4.118,0
245,4.135,0
246,4.152,0
247,4.168,0
248,4.185,0
249,4.202,0
250,4.218,0
251,4.235,0
252,4.252,0
253,4.268,0
254,4.285,0
255,4.301,0
256,4.318,0
257,4.335,0
258,4.351,0
259,4.368,0
260,4.385,0
261,4.401,0
262,4.418,0
263,4.434,0
264,4.451,0
265,4.468,0
266,4.484,0
267,4.501,0
268,4.518,0
269,4.534,0
270,4.551,0
271,4.568,0
272,4.584,0
273,4.601,0
274,4.617,0
275,4.634,0
276,4.651,0
277,4.667,0
278,4.684,0
279,4.701,0
280,4.717,0
281,4.734,0
282,4.751,0
283,4.767,0
284,4.784,0
285,4.800,0
286,4.817,0
287,4.834,0
288,4.850,0
289,4.867,0
290,4.884,0
291,4.900,0
292,4.917,0
293,4.933,0
294,4.950,0.44094121788736
295,4.967,0
296,4.983,0
297,5.000,0
298,5.017,0
299,5.033,0
300,5.050,0
301,5.067,0
302,5.083,0
303,5.100,0
304,5.116,0
305,5.133,0
306,5.150,0
307,5.166,0
308,5.183,0
309,5.200,0
310,5.216,0
311,5.233,0
312,5.250,0
313,5.266,0
314,5.283,0
315,5.299,0
316,5.316,0
317,5.333,0
318,5.349,0
319,5.366,0
320,5.383,0
321,5.399,0
322,5.416,0
323,5.432,0
324,5.449,0.365533623915708
325,5.466,0
326,5.482,0
327,5.499,0
328,5.516,0
329,5.532,0
330,5.549,0
331,5.566,0.354110897196729
332,5.582,0
333,5.599,0.435412749626014
334,5.615,0
335,5.632,0
336,5.649,0
337,5.665,0
338,5.682,0
339,5.699,0
340,5.715,0
341,5.732,0
342,5.749,0
343,5.765,0
344,5.782,0
345,5.798,0
346,5.815,0
347,5.832,0
348,5.848,0
349,5.865,0
350,5.882,0
351,5.898,0
352,5.915,0
353,5.931,0
354,5.948,0
355,5.965,0
356,5.981,0.377718624561664
357,5.998,0.444213199810947
358,6.015,0
359,6.031,0
360,6.048,0
361,6.065,0
362,6.081,0
363,6.098,0
364,6.114,0
365,6.131,0
366,6.148,0
367,6.164,0
368,6.181,0
369,6.198,0
370,6.214,0
371,6.231,0
372,6.248,0
373,6.264,0
374,6.281,0
375,6.297,0
376,6.314,0
377,6.331,0.378235043278047
378,6.347,0
379,6.364,0
380,6.381,0
381,6.397,0
382,6.414,0
383,6.430,0
384,6.447,0
385,6.464,0
386,6.480,0
387,6.497,0
388,6.514,0
389,6.530,0
390,6.547,0
391,6.564,0.456244297959802
392,6.580,0
393,6.597,0
394,6.613,0
395,6.630,0
396,6.647,0
397,6.663,0
398,6.680,0
399,6.697,0
400,6.713,0
401,6.730,0
402,6.747,0
403,6.763,0
404,6.780,0
405,6.796,0
406,6.813,0
407,6.830,0
408,6.846,0
409,6.863,0
410,6.880,0
411,6.896,0
412,6.913,0.667906808912892
413,6.929,0
414,6.946,0
415,6.963,0
416,6.979,0
417,6.996,0
418,7.013,0
419,7.029,0
420,7.046,0
421,7.063,0
422,7.079,0
423,7.096,0
424,7.112,0
425,7.129,0.474720731398605
426,7.146,0
427,7.162,0
428,7.179,0
429,7.196,0
430,7.212,0
431,7.229,0
432,7.246,0
433,7.262,0.394298274308002
434,7.279,0
435,7.295,0
436,7.312,0
437,7.329,0
438,7.345,0
439,7.362,0
440,7.379,0
441,7.395,0
442,7.412,0
443,7.428,0
444,7.445,0
445,7.462,0
446,7.478,0
447,7.495,0
448,7.512,0
449,7.528,0
450,7.545,0
451,7.562,0
452,7.578,0
453,7.595,0
454,7.612,0
455,7.628,0
456,7.645,0
457,7.661,0
458,7.678,0.474566803323558
459,7.695,0
460,7.711,0
461,7.728,0
462,7.745,0
463,7.761,0
464,7.778,0
465,7.794,0
466,7.811,0.424368960167224
467,7.828,0
468,7.844,0
469,7.861,0
470,7.878,0
471,7.894,0
472,7.911,0
473,7.928,0
474,7.944,0
475,7.961,0
476,7.977,0
477,7.994,0
478,8.011,0
479,8.027,0
480,8.044,0
481,8.061,0
482,8.077,0
483,8.094,0
484,8.111,0
485,8.127,0
486,8.144,0.541780118836853
487,8.160,0
488,8.177,0
489,8.194,0
490,8.210,0
491,8.227,0
492,8.244,0
493,8.260,0
494,8.277,0
495,8.293,0
496,8.310,0
497,8.327,0
498,8.343,0
499,8.360,0
500,8.377,0
501,8.393,0.443402020852483
502,8.410,0
503,8.427,0
504,8.443,0
505,8.460,0
506,8.476,0
507,8.493,0
508,8.510,0
509,8.526,0
510,8.543,0
511,8.560,0
512,8.576,0
513,8.593,0
514,8.610,0
515,8.626,0
516,8.643,0
517,8.659,0
518,8.676,0
519,8.693,0
520,8.709,0
521,8.726,0
522,8.743,0
523,8.759,0
524,8.776,0
525,8.792,0
526,8.809,0
527,8.826,0
528,8.842,0
529,8.859,0
530,8.876,0
531,8.892,0
532,8.909,0
533,8.926,0
534,8.942,0
535,8.959,0
536,8.975,0
537,8.992,0
538,9.009,0
539,9.025,0.454277609742727
540,9.042,0
541,9.059,0
542,9.075,0
543,9.092,0
544,9.109,0
545,9.125,0
546,9.142,0
547,9.158,0
548,9.175,0
549,9.192,0
550,9.208,0
551,9.225,0
552,9.242,0
553,9.258,0.437089025851715
554,9.275,0
555,9.291,0
556,9.308,0
557,9.325,0
558,9.341,0
559,9.358,0
560,9.375,0
561,9.391,0
562,9.408,0
563,9.425,0
564,9.441,0
565,9.458,0
566,9.474,0
567,9.491,0
568,9.508,0
569,9.524,0
570,9.541,0
571,9.558,0
572,9.574,0
573,9.591,0
574,9.608,0
575,9.624,0
576,9.641,0
577,9.657,0
578,9.674,0
579,9.691,0
580,9.707,0
581,9.724,0
582,9.741,0
583,9.757,0
584,9.774,0
585,9.790,0
586,9.807,0
587,9.824,0
588,9.840,0
589,9.857,0
590,9.874,0
591,9.890,0
592,9.907,0
593,9.924,0
594,9.940,0
595,9.957,0
596,9.973,0
597,9.990,0
598,10.007,0
599,10.023,0
600,10.040,0
601,10.057,0
602,10.073,0
603,10.090,0
604,10.106,0
605,10.123,0
606,10.140,0
607,10.156,0
608,10.173,0
609,10.190,0
610,10.206,0
611,10.223,0
612,10.240,0
613,10.256,0
614,10.273,0
615,10.289,0
616,10.306,0
617,10.323,0
618,10.339,0
619,10.356,0
620,10.373,0
621,10.389,0
622,10.406,0
623,10.423,0
624,10.439,0
625,10.456,0
626,10.472,0
627,10.489,0
628,10.506,0
629,10.522,0
630,10.539,0
631,10.556,0
632,10.572,0
633,10.589,0
634,10.605,0
635,10.622,0
636,10.639,0
637,10.655,0
638,10.672,0
639,10.689,0
640,10.705,0
641,10.722,0
642,10.739,0
643,10.755,0
644,10.772,0
645,10.788,0
646,10.805,0
647,10.822,0
648,10.838,0
649,10.855,0
650,10.872,0
651,10.888,0
652,10.905,0
653,10.922,0
654,10.938,0
655,10.955,0
656,10.971,0
657,10.988,0
658,11.005,0
659,11.021,0
660,11.038,0
661,11.055,0
662,11.071,0
663,11.088,0
664,11.104,0
665,11.121,0
666,11.138,0
667,11.154,0
668,11.171,0
669,11.188,0
670,11.204,0
671,11.221,0
672,11.238,0
673,11.254,0
674,11.271,0
675,11.287,0
676,11.304,0
677,11.321,0
678,11.337,0
679,11.354,0
680,11.371,0
681,11.387,0
682,11.404,0
683,11.421,0
684,11.437,0
685,11.454,0
686,11.470,0
687,11.487,0
688,11.504,0
689,11.520,0
690,11.537,0
691,11.554,0
692,11.570,0
693,11.587,0
694,11.603,0
695,11.620,0
696,11.637,0
697,11.653,0
698,11.670,0
699,11.687,0
700,11.703,0
701,11.720,0
702,11.737,0
703,11.753,0
704,11.770,0
705,11.786,0
706,11.803,0
707,11.820,0
708,11.836,0
709,11.853,0
710,11.870,0
711,11.886,0
712,11.903,0
713,11.920,0
714,11.936,0
715,11.953,0
716,11.969,0
717,11.986,0
718,12.003,0
719,12.019,0
720,12.036,0
721,12.053,0
722,12.069,0
723,12.086,0
724,12.102,0
725,12.119,0
726,12.136,0
727,12.152,0
728,12.169,0
729,12.186,0
730,12.202,0
731,12.219,0
732,12.236,0
733,12.252,0
734,12.269,0
735,12.285,0
736,12.302,0
737,12.319,0
738,12.335,0
739,12.352,0
740,12.369,0
741,12.385,0
742,12.402,0
743,12.419,0.435203215097801
744,12.435,0
745,12.452,0
746,12.468,0
747,12.485,0
748,12.502,0
749,12.518,0
750,12.535,0
751,12.552,0
752,12.568,0
753,12.585,0
754,12.601,0
755,12.618,0
756,12.635,0
757,12.651,0
758,12.668,0
759,12.685,0
760,12.701,0
761,12.718,0
762,12.735,0
763,12.751,0
764,12.768,0
765,12.784,0
766,12.801,0
767,12.818,0
768,12.834,0
769,12.851,0
770,12.868,0
771,12.884,0
772,12.901,0
773,12.918,0
774,12.934,0
775,12.951,0
776,12.967,0
777,12.984,0
778,13.001,0
779,13.017,0
780,13.034,0
781,13.051,0
782,13.067,0
783,13.084,0
784,13.100,0
785,13.117,0
786,13.134,0
787,13.150,0
788,13.167,0
789,13.184,0
790,13.200,0
791,13.217,0
792,13.234,0
793,13.250,0
794,13.267,0
795,13.283,0
796,13.300,0
797,13.317,0
798,13.333,0
799,13.350,0
800,13.367,0
801,13.383,0
802,13.400,0
803,13.417,0
804,13.433,0
805,13.450,0
806,13.466,0
807,13.483,0
808,13.500,0
809,13.516,0
810,13.533,0
811,13.550,0
812,13.566,0
813,13.583,0
814,13.599,0
815,13.616,0
816,13.633,0
817,13.649,0
818,13.666,0
819,13.683,0
820,13.699,0
821,13.716,0
822,13.733,0
823,13.749,0
824,13.766,0
825,13.782,0
826,13.799,0
827,13.816,0
828,13.832,0
829,13.849,0
830,13.866,0
831,13.882,0
832,13.899,0
833,13.916,0
834,13.932,0
835,13.949,0
836,13.965,0
837,13.982,0
838,13.999,0
839,14.015,0
840,14.032,0
841,14.049,0
842,14.065,0
843,14.082,0
844,14.098,0
845,14.115,0
846,14.132,0
847,14.148,0
848,14.165,0
849,14.182,0
850,14.198,0
851,14.215,0
852,14.232,0
853,14.248,0
854,14.265,0
855,14.281,0
856,14.298,0
857,14.315,0
858,14.331,0
859,14.348,0
860,14.365,0
861,14.381,0
862,14.398,0
863,14.415,0
864,14.431,0
865,14.448,0
866,14.464,0
867,14.481,0
868,14.498,0
869,14.514,0
870,14.531,0
871,14.548,0
872,14.564,0
873,14.581,0
874,14.597,0
875,14.614,0
876,14.631,0
877,14.647,0
878,14.664,0
879,14.681,0
880,14.697,0
881,14.714,0
882,14.731,0.456265988057449
883,14.747,0
884,14.764,0
885,14.780,0
886,14.797,0
887,14.814,0
888,14.830,0
889,14.847,0
890,14.864,0
891,14.880,0
892,14.897,0
893,14.914,0
894,14.930,0
895,14.947,0
896,14.963,0
897,14.980,0
898,14.997,0
899,15.013,0
900,15.030,0
901,15.047,0
902,15.063,0
903,15.080,0
904,15.096,0
905,15.113,0
906,15.130,0
907,15.146,0
908,15.163,0
909,15.180,0
910,15.196,0
911,15.213,0
912,15.230,0
913,15.246,0
914,15.263,0
915,15.280,0
916,15.296,0
917,15.313,0
918,15.329,0
919,15.346,0
920,15.363,0
921,15.379,0.349704738020944
922,15.396,0
923,15.413,0
924,15.429,0
925,15.446,0
926,15.462,0
927,15.479,0
928,15.496,0
929,15.512,0
930,15.529,0
931,15.546,0
932,15.562,0
933,15.579,0
934,15.596,0
935,15.612,0
936,15.629,0
937,15.645,0
938,15.662,0
939,15.679,0
940,15.695,0
941,15.712,0
942,15.729,0
943,15.745,0
944,15.762,0
945,15.779,0
946,15.795,0
947,15.812,0
948,15.828,0
949,15.845,0
950,15.862,0
951,15.878,0
952,15.895,0
953,15.912,0
954,15.928,0
955,15.945,0
956,15.961,0
957,15.978,0
958,15.995,0
959,16.011,0
960,16.028,0
961,16.045,0
962,16.061,0
963,16.078,0
964,16.095,0
965,16.111,0
966,16.128,0
967,16.144,0
968,16.161,0
969,16.178,0
970,16.194,0
971,16.211,0
972,16.228,0
973,16.244,0
974,16.261,0
975,16.278,0
976,16.294,0
977,16.311,0
978,16.327,0
979,16.344,0
980,16.361,0
981,16.377,0
982,16.394,0
983,16.411,0
984,16.427,0
985,16.444,0
986,16.460,0
987,16.477,0
988,16.494,0
989,16.510,0
990,16.527,0
991,16.544,0
992,16.560,0
993,16.577,0
994,16.594,0
995,16.610,0
996,16.627,0
997,16.643,0
998,16.660,0
999,16.677,0
1000,16.693,0
1001,16.710,0
1002,16.727,0
1003,16.743,0
1004,16.760,0
1005,16.777,0
1006,16.793,0
1007,16.810,0
1008,16.826,0
1009,16.843,0
1010,16.860,0
1011,16.876,0
1012,16.893,0
1013,16.910,0
1014,16.926,0
1015,16.943,0
1016,16.959,0
1017,16.976,0
1018,16.993,0
1019,17.009,0
1020,17.026,0
1021,17.043,0
1022,17.059,0
1023,17.076,0
1024,17.093,0
1025,17.109,0
1026,17.126,0
1027,17.142,0
1028,17.159,0
1029,17.176,0
1030,17.192,0
1031,17.209,0
1032,17.226,0
1033,17.242,0
1034,17.259,0
1035,17.276,0
1036,17.292,0
1037,17.309,0
1038,17.325,0
1039,17.342,0
1040,17.359,0
1041,17.375,0
1042,17.392,0
1043,17.409,0
1044,17.425,0
1045,17.442,0
1046,17.458,0
1047,17.475,0
1048,17.492,0
1049,17.508,0
1050,17.525,0
1051,17.542,0
1052,17.558,0
1053,17.575,0
1054,17.592,0
1055,17.608,0
1056,17.625,0
1057,17.641,0
1058,17.658,0
1059,17.675,0
1060,17.691,0
1061,17.708,0
1062,17.725,0
1063,17.741,0
1064,17.758,0
1065,17.774,0
1066,17.791,0
1067,17.808,0
1068,17.824,0
1069,17.841,0
1070,17.858,0
1071,17.874,0
1072,17.891,0
1073,17.908,0
1074,17.924,0
1075,17.941,0
1076,17.957,0
1077,17.974,0
1078,17.991,0
1079,18.007,0
1080,18.024,0
1081,18.041,0
1082,18.057,0
1083,18.074,0
1084,18.091,0
1085,18.107,0
1086,18.124,0
1087,18.140,0
1088,18.157,0
1089,18.174,0
1090,18.190,0
1091,18.207,0
1092,18.224,0
1093,18.240,0
1094,18.257,0
1095,18.273,0
1096,18.290,0
1097,18.307,0
1098,18.323,0
1099,18.340,0
1100,18.357,0
1101,18.373,0
1102,18.390,0
1103,18.407,0
1104,18.423,0
1105,18.440,0
1106,18.456,0
1107,18.473,0
1108,18.490,0
1109,18.506,0
1110,18.523,0
1111,18.540,0
1112,18.556,0
1113,18.573,0
1114,18.590,0
1115,18.606,0
1116,18.623,0
1117,18.639,0
1118,18.656,0
1119,18.673,0.570608407157149
1120,18.689,0
1121,18.706,0
1122,18.723,0
1123,18.739,0.394997984580681
1124,18.756,0
1125,18.772,0
1126,18.789,0
1127,18.806,0
1128,18.822,0
1129,18.839,0
1130,18.856,0.772558102615083
1131,18.872,0
1132,18.889,0
1133,18.906,0
1134,18.922,0
1135,18.939,0
1136,18.955,0
1137,18.972,0
1138,18.989,0.454278632860541
1139,19.005,0
1140,19.022,0
1141,19.039,0
1142,19.055,0.392087777115962
1143,19.072,0
1144,19.089,0
1145,19.105,0
1146,19.122,0.443100866124068
1147,19.138,0
1148,19.155,0
1149,19.172,0
1150,19.188,0
1151,19.205,0
1152,19.222,0
1153,19.238,0
1154,19.255,0
1155,19.271,0
1156,19.288,0
1157,19.305,0
1158,19.321,0
1159,19.338,0
1160,19.355,0
1161,19.371,0
1162,19.388,0
1163,19.405,0
1164,19.421,0
1165,19.438,0
1166,19.454,0.420151182558857
1167,19.471,0
1168,19.488,0
1169,19.504,0
1170,19.521,0
1171,19.538,0.433736473400312
1172,19.554,0
1173,19.571,0
1174,19.588,0
1175,19.604,0
1176,19.621,0
1177,19.637,0
1178,19.654,0
1179,19.671,0
1180,19.687,0
1181,19.704,0
1182,19.721,0
1183,19.737,0.384825124160667
1184,19.754,0
1185,19.770,0
1186,19.787,0.374391650055599
1187,19.804,0
1188,19.820,0.473165592322026
1189,19.837,0
1190,19.854,0
1191,19.870,0
1192,19.887,0
1193,19.904,0.599186031613129
1194,19.920,0
1195,19.937,0
1196,19.953,0
1197,19.970,0
1198,19.987,0
1199,20.003,0
1200,20.020,0
1201,20.037,0
1202,20.053,0
1203,20.070,0
1204,20.087,0
1205,20.103,0
1206,20.120,0
1207,20.136,0
1208,20.153,0
1209,20.170,0
1210,20.186,0
1211,20.203,0
1212,20.220,0
1213,20.236,0
1214,20.253,0
1215,20.269,0.80261218838778
1216,20.286,0
1217,20.303,0
1218,20.319,0.387578999223478
1219,20.336,0
1220,20.353,0
1221,20.369,0
1222,20.386,0
1223,20.403,0.538789443156098
1224,20.419,0.383993764203331
1225,20.436,0.352554504800829
1226,20.452,0
1227,20.469,0.702385316514346
1228,20.486,0.766504877227172
1229,20.502,0
1230,20.519,0
1231,20.536,0.461017858742429
1232,20.552,0
1233,20.569,0
1234,20.586,0
1235,20.602,0
1236,20.619,1.05615745940301
1237,20.635,0.459031680131006
1238,20.652,0.439051007726848
1239,20.669,0
1240,20.685,0
1241,20.702,0
1242,20.719,0
1243,20.735,0
1244,20.752,0
1245,20.768,0
1246,20.785,0.400287324631059
1247,20.802,0
1248,20.818,0
1249,20.835,0
1250,20.852,0
1251,20.868,0.489296477017402
1252,20.885,0
1253,20.902,0
1254,20.918,0
1255,20.935,0.457008464654734
1256,20.951,0
1257,20.968,0
1258,20.985,0
1259,21.001,0
1260,21.018,0
1261,21.035,0
1262,21.051,0
1263,21.068,0
1264,21.085,0
1265,21.101,0
1266,21.118,0
1267,21.134,0.478383442015183
1268,21.151,0
1269,21.168,0
1270,21.184,0
1271,21.201,0
1272,21.218,0
1273,21.234,0
1274,21.251,0
1275,21.267,0
1276,21.284,0
1277,21.301,0.577247367493311
1278,21.317,0
1279,21.334,1.00192894130846
1280,21.351,0
1281,21.367,0
1282,21.384,0
1283,21.401,0
1284,21.417,0
1285,21.434,0
1286,21.450,0
1287,21.467,0.466565356995107
1288,21.484,0
1289,21.500,0
1290,21.517,0
1291,21.534,0
1292,21.550,0
1293,21.567,0
1294,21.584,0
1295,21.600,0
1296,21.617,0
1297,21.633,0
1298,21.650,0.373399302510302
1299,21.667,0
1300,21.683,0
1301,21.700,0.391321180516222
1302,21.717,0
1303,21.733,0
1304,21.750,0
1305,21.766,0.435638705195134
1306,21.783,0
1307,21.800,0
1308,21.816,0
1309,21.833,0
1310,21.850,0
1311,21.866,0
1312,21.883,0
1313,21.900,0
1314,21.916,0
1315,21.933,0
1316,21.949,0.388999240216342
1317,21.966,0.452659241985272
1318,21.983,0.788488046971879
1319,21.999,0
1320,22.016,0
1321,22.033,0
1322,22.049,0
1323,22.066,0.388493999062071
1324,22.083,0
1325,22.099,0.54732976563694
1326,22.116,0
1327,22.132,0
1328,22.149,0.448932126102332
1329,22.166,0.623519098351972
1330,22.182,0
1331,22.199,0
1332,22.216,0
1333,22.232,0
1334,22.249,0.491351255678222
1335,22.265,0
1336,22.282,0.405312879331161
1337,22.299,0
1338,22.315,0.843344452468598
1339,22.332,0
1340,22.349,0.430258179769625
1341,22.365,0
1342,22.382,0.49490822706877
1343,22.399,0
1344,22.415,0
1345,22.432,0.35323922639754
1346,22.448,0
1347,22.465,0.421699594635811
1348,22.482,0.552133457239176
1349,22.498,0
1350,22.515,0
1351,22.532,0
1352,22.548,0
1353,22.565,0
1354,22.582,0
1355,22.598,0
1356,22.615,0
1357,22.631,0
1358,22.648,0
1359,22.665,0
1360,22.681,0
1361,22.698,0
1362,22.715,0
1363,22.731,0.642223328971959
1364,22.748,0
1365,22.764,0
1366,22.781,0
1367,22.798,0
1368,22.814,0.435223677454072
1369,22.831,0
1370,22.848,0
1371,22.864,0
1372,22.881,0
1373,22.898,0
1374,22.914,0
1375,22.931,0.570755122251611
1376,22.948,0
1377,22.964,0
1378,22.981,0
1379,22.997,0.898730832992731
1380,23.014,0
1381,23.031,0.460454632386076
1382,23.047,0.451554121278978
1383,23.064,0
1384,23.081,0
1385,23.097,0.760756387480024
1386,23.114,0.377849788265359
1387,23.130,0
1388,23.147,0
1389,23.164,0
1390,23.180,0.836293226809471
1391,23.197,1.71218008988507
1392,23.214,3.56125375246874
1393,23.230,3.22782047553075
1394,23.247,4.11123769033756
1395,23.264,2.57419818175104
1396,23.280,3.03042483092855
1397,23.297,2.15979065470766
1398,23.313,0
1399,23.330,0
1400,23.347,2.49659592333551
1401,23.363,0.613913710227236
1402,23.380,1.11056870633906
1403,23.397,0.849485972923817
1404,23.413,0
1405,23.430,0.558961950150295
1406,23.447,0.620379610185238
1407,23.463,0.535006106949304
1408,23.480,0.894490009655613
1409,23.496,0.540470886126758
1410,23.513,0.43680449678777
1411,23.530,0.727851793167027
1412,23.546,0
1413,23.563,0.559013361820425
1414,23.580,0.814407304412941
1415,23.596,0
1416,23.613,0
1417,23.629,0.46702729468792
1418,23.646,0
1419,23.663,0
1420,23.679,0.720798777051726
1421,23.696,0
1422,23.713,0.681046250589152
1423,23.729,0
1424,23.746,0
1425,23.763,0
