#"+ BPC(1083.03666) Scan unstir_50_Ecoli-r002.d "
#Point,X(Minutes),Y(Counts)
0,0.068,0
1,0.084,0
2,0.101,0
3,0.117,0.284955843227116
4,0.134,0
5,0.151,0.417990857221949
6,0.167,0
7,0.184,0
8,0.201,0
9,0.217,0
10,0.234,0
11,0.250,0.368425920942011
12,0.267,0
13,0.284,0
14,0.300,0
15,0.317,0.29310700023581
16,0.334,0
17,0.350,0
18,0.367,0
19,0.384,0
20,0.400,0
21,0.417,0
22,0.433,0
23,0.450,0.274015748031496
24,0.467,0
25,0.483,0.256259115224122
26,0.500,0
27,0.517,0
28,0.533,0.279141579775673
29,0.550,0.236368831123893
30,0.566,0
31,0.583,0
32,0.600,0
33,0.616,0.373991750481873
34,0.633,0
35,0.650,0
36,0.666,0
37,0.683,0
38,0.700,0
39,0.716,0
40,0.733,0
41,0.749,0
42,0.766,0
43,0.783,0.279516729720308
44,0.799,0
45,0.816,0
46,0.833,0
47,0.849,0
48,0.866,0
49,0.883,0
50,0.899,0
51,0.916,0
52,0.932,0
53,0.949,0
54,0.966,0
55,0.982,0
56,0.999,0
57,1.016,0.288823133253363
58,1.032,0
59,1.049,0
60,1.065,0
61,1.082,0
62,1.099,0
63,1.115,0
64,1.132,0
65,1.149,0
66,1.165,0
67,1.182,0
68,1.199,0
69,1.215,0
70,1.232,0.429946250615157
71,1.248,0
72,1.265,0
73,1.282,0
74,1.298,0
75,1.315,0
76,1.332,0
77,1.348,0
78,1.365,0
79,1.382,0
80,1.398,0
81,1.415,0
82,1.431,0
83,1.448,0
84,1.465,0
85,1.481,0
86,1.498,0
87,1.515,0.215456760837024
88,1.531,0
89,1.548,0.324350784582103
90,1.564,0
91,1.581,0
92,1.598,0
93,1.614,0
94,1.631,0.325459317585302
95,1.648,0
96,1.664,0.542847769028871
97,1.681,0.3147102416031
98,1.698,0
99,1.714,0
100,1.731,0
101,1.747,0
102,1.764,0
103,1.781,0
104,1.797,0
105,1.814,0.3678337037094
106,1.831,0
107,1.847,0.235643041415477
108,1.864,0
109,1.881,0
110,1.897,0
111,1.914,0
112,1.930,0
113,1.947,0
114,1.964,0
115,1.980,0
116,1.997,0
117,2.014,0
118,2.030,0
119,2.047,0
120,2.063,0
121,2.080,0.278284684629265
122,2.097,0
123,2.113,0
124,2.130,0
125,2.147,0.290818806645751
126,2.163,0
127,2.180,0
128,2.197,0
129,2.213,0.314623158372293
130,2.230,0
131,2.246,0
132,2.263,0
133,2.280,0.426594347215387
134,2.296,0
135,2.313,0
136,2.330,0
137,2.346,0
138,2.363,0
139,2.380,0
140,2.396,0
141,2.413,0
142,2.429,0.518247941785597
143,2.446,0.269280797602936
144,2.463,0.430805933193898
145,2.479,0
146,2.496,0.562461296341863
147,2.513,0
148,2.529,0
149,2.546,0
150,2.562,0
151,2.579,0
152,2.596,0
153,2.612,0
154,2.629,0
155,2.646,0
156,2.662,0
157,2.679,0
158,2.696,0.294556080575377
159,2.712,0
160,2.729,0
161,2.745,0
162,2.762,0
163,2.779,0
164,2.795,0.32978316980397
165,2.812,0
166,2.829,0
167,2.845,0.353011291984498
168,2.862,0
169,2.879,0
170,2.895,0
171,2.912,0
172,2.928,0
173,2.945,0.395103250338337
174,2.962,0
175,2.978,0.282685271335712
176,2.995,0
177,3.012,0
178,3.028,0
179,3.045,0
180,3.061,0
181,3.078,0
182,3.095,0.259354430671752
183,3.111,0
184,3.128,0
185,3.145,0
186,3.161,0
187,3.178,0
188,3.195,0.230225714736097
189,3.211,0
190,3.228,0.30345580734293
191,3.244,0
192,3.261,0
193,3.278,0
194,3.294,0
195,3.311,0
196,3.328,0
197,3.344,0
198,3.361,0
199,3.378,0
200,3.394,0
201,3.411,0
202,3.427,0
203,3.444,0
204,3.461,0
205,3.477,0
206,3.494,0
207,3.511,0
208,3.527,0
209,3.544,0
210,3.561,0
211,3.577,0
212,3.594,0
213,3.610,0
214,3.627,0.435550719734252
215,3.644,0.287701848548228
216,3.660,0
217,3.677,0
218,3.694,0
219,3.710,0
220,3.727,0
221,3.744,0
222,3.760,0.266816002552904
223,3.777,0
224,3.793,0
225,3.810,0
226,3.827,0
227,3.843,0
228,3.860,0.388888878209072
229,3.877,0.219909411653133
230,3.893,0
231,3.910,0
232,3.926,0
233,3.943,0
234,3.960,0
235,3.976,0
236,3.993,0.259849808660392
237,4.010,0.325260833179544
238,4.026,0
239,4.043,0
240,4.060,0
241,4.076,0.261340123774811
242,4.093,0
243,4.109,0
244,4.126,0
245,4.143,0
246,4.159,0.317100801242618
247,4.176,0.297803279045686
248,4.193,0.308389754808481
249,4.209,0
250,4.226,0
251,4.243,0
252,4.259,0
253,4.276,0
254,4.292,0
255,4.309,0
256,4.326,0.299484036663386
257,4.342,0.291076115485564
258,4.359,0
259,4.376,0
260,4.392,0
261,4.409,0.32645920480643
262,4.425,0
263,4.442,0
264,4.459,0
265,4.475,0
266,4.492,0
267,4.509,0
268,4.525,0
269,4.542,0
270,4.559,0
271,4.575,0
272,4.592,0
273,4.608,0
274,4.625,0
275,4.642,0
276,4.658,0
277,4.675,0
278,4.692,0
279,4.708,0
280,4.725,0
281,4.742,0
282,4.758,0
283,4.775,0
284,4.791,0.24238845144357
285,4.808,0
286,4.825,0
287,4.841,0
288,4.858,0
289,4.875,0.357876707062008
290,4.891,0
291,4.908,0
292,4.924,0.275297358154938
293,4.941,0
294,4.958,0
295,4.974,0
296,4.991,0
297,5.008,0
298,5.024,0
299,5.041,0
300,5.058,0.341123021243438
301,5.074,0
302,5.091,0
303,5.107,0
304,5.124,0
305,5.141,0
306,5.157,0
307,5.174,0
308,5.191,0
309,5.207,0
310,5.224,0
311,5.241,0
312,5.257,0
313,5.274,0
314,5.290,0
315,5.307,0
316,5.324,0
317,5.340,0.252529002112041
318,5.357,0
319,5.374,0
320,5.390,0
321,5.407,0
322,5.423,0
323,5.440,0
324,5.457,0
325,5.473,0
326,5.490,0
327,5.507,0
328,5.523,0
329,5.540,0
330,5.557,0
331,5.573,0.2486103047849
332,5.590,0
333,5.606,0.219431318948901
334,5.623,0
335,5.640,0.243770585347974
336,5.656,0
337,5.673,0.435930419281086
338,5.690,0
339,5.706,0
340,5.723,0
341,5.740,0.341732283464567
342,5.756,0.312441912473343
343,5.773,0.530743584420111
344,5.789,0
345,5.806,0
346,5.823,0
347,5.839,0
348,5.856,0.234873469795768
349,5.873,0
350,5.889,0
351,5.906,0.273097112860892
352,5.922,0
353,5.939,0.242617773821973
354,5.956,0
355,5.972,0
356,5.989,0.214564221800156
357,6.006,0
358,6.022,0.295037729658793
359,6.039,0
360,6.056,0.425664722512713
361,6.072,0
362,6.089,0
363,6.105,0.279726011421424
364,6.122,0
365,6.139,0
366,6.155,0
367,6.172,0
368,6.189,0
369,6.205,0
370,6.222,0
371,6.239,0
372,6.255,0
373,6.272,0.233464566929134
374,6.288,0.457285066539534
375,6.305,0
376,6.322,0
377,6.338,0.218503937007874
378,6.355,0
379,6.372,0
380,6.388,0
381,6.405,0
382,6.421,0
383,6.438,0.292827103582267
384,6.455,0
385,6.471,0
386,6.488,0
387,6.505,0
388,6.521,0.310991294240075
389,6.538,0.339023860420768
390,6.555,0
391,6.571,0.242521767603757
392,6.588,0.27695815519398
393,6.604,0
394,6.621,0
395,6.638,0
396,6.654,0
397,6.671,0
398,6.688,0
399,6.704,0
400,6.721,0
401,6.738,0
402,6.754,0.576099593996063
403,6.771,0
404,6.787,0
405,6.804,0
406,6.821,0
407,6.837,0
408,6.854,0
409,6.871,0
410,6.887,0
411,6.904,0
412,6.920,0.306414202192011
413,6.937,0
414,6.954,0
415,6.970,0
416,6.987,0
417,7.004,0
418,7.020,0
419,7.037,0
420,7.054,0
421,7.070,0
422,7.087,0
423,7.103,0
424,7.120,0.317867953883694
425,7.137,0
426,7.153,0
427,7.170,0
428,7.187,0
429,7.203,0.265616797900262
430,7.220,0
431,7.236,0
432,7.253,0.22379012620981
433,7.270,0
434,7.286,0
435,7.303,0
436,7.320,0
437,7.336,0
438,7.353,0.220774108406127
439,7.370,0
440,7.386,0
441,7.403,0.221789919234949
442,7.419,0
443,7.436,0
444,7.453,0
445,7.469,0
446,7.486,0.544300437787073
447,7.503,0
448,7.519,0
449,7.536,0
450,7.553,0
451,7.569,0.242534262990075
452,7.586,0
453,7.602,0.282204711593668
454,7.619,0
455,7.636,0.514572856432497
456,7.652,0
457,7.669,0
458,7.686,0.243725169424623
459,7.702,0
460,7.719,0
461,7.735,0
462,7.752,0
463,7.769,0
464,7.785,0
465,7.802,0.273668376291831
466,7.819,0
467,7.835,0
468,7.852,0
469,7.869,0
470,7.885,0
471,7.902,0
472,7.918,0
473,7.935,0
474,7.952,0
475,7.968,0
476,7.985,0.307913199997949
477,8.002,0.6074783285146
478,8.018,0
479,8.035,0.217664647540395
480,8.052,0
481,8.068,0
482,8.085,0.227589332400344
483,8.101,0
484,8.118,0
485,8.135,0
486,8.151,0.306099510693488
487,8.168,0
488,8.185,0
489,8.201,0
490,8.218,0
491,8.234,0
492,8.251,0
493,8.268,0
494,8.284,0
495,8.301,0
496,8.318,0
497,8.334,0.301590021889354
498,8.351,0
499,8.368,0.411745406824147
500,8.384,0
501,8.401,0
502,8.417,0.326706036745407
503,8.434,0
504,8.451,0
505,8.467,0.290604334553396
506,8.484,0
507,8.501,0
508,8.517,0
509,8.534,0
510,8.551,0
511,8.567,0
512,8.584,0
513,8.600,0
514,8.617,0
515,8.634,0
516,8.650,0
517,8.667,0
518,8.684,0
519,8.700,0
520,8.717,0
521,8.733,0
522,8.750,0
523,8.767,0
524,8.783,0
525,8.800,0
526,8.817,0
527,8.833,0
528,8.850,0
529,8.867,0
530,8.883,0
531,8.900,0
532,8.916,0
533,8.933,0
534,8.950,0
535,8.966,0
536,8.983,0
537,9.000,0
538,9.016,0
539,9.033,0
540,9.050,0
541,9.066,0
542,9.083,0
543,9.099,0
544,9.116,0
545,9.133,0
546,9.149,0
547,9.166,0
548,9.183,0
549,9.199,0
550,9.216,0
551,9.232,0
552,9.249,0
553,9.266,0
554,9.282,0
555,9.299,0
556,9.316,0
557,9.332,0
558,9.349,0
559,9.366,0
560,9.382,0
561,9.399,0
562,9.415,0
563,9.432,0
564,9.449,0
565,9.465,0
566,9.482,0.28265319984416
567,9.499,0.307423060459728
568,9.515,0
569,9.532,0
570,9.549,0
571,9.565,0
572,9.582,0
573,9.598,0
574,9.615,0
575,9.632,0
576,9.648,0
577,9.665,0
578,9.682,0
579,9.698,0
580,9.715,0
581,9.731,0
582,9.748,0
583,9.765,0
584,9.781,0
585,9.798,0
586,9.815,0
587,9.831,0
588,9.848,0
589,9.865,0
590,9.881,0
591,9.898,0
592,9.914,0
593,9.931,0
594,9.948,0
595,9.964,0.276377952755905
596,9.981,0
597,9.998,0
598,10.014,0
599,10.031,0
600,10.048,0
601,10.064,0
602,10.081,0
603,10.097,0
604,10.114,0
605,10.131,0
606,10.147,0
607,10.164,0
608,10.181,0
609,10.197,0
610,10.214,0
611,10.230,0
612,10.247,0
613,10.264,0
614,10.280,0
615,10.297,0
616,10.314,0
617,10.330,0
618,10.347,0
619,10.364,0.24093155347769
620,10.380,0
621,10.397,0
622,10.413,0
623,10.430,0
624,10.447,0.227763482842233
625,10.463,0
626,10.480,0
627,10.497,0
628,10.513,0.225748025088173
629,10.530,0
630,10.547,0.234112148334974
631,10.563,0
632,10.580,0
633,10.596,0
634,10.613,0.237788819640953
635,10.630,0
636,10.646,0
637,10.663,0
638,10.680,0
639,10.696,0.270997375328084
640,10.713,0
641,10.729,0
642,10.746,0
643,10.763,0
644,10.779,0
645,10.796,0
646,10.813,0
647,10.829,0
648,10.846,0
649,10.863,0
650,10.879,0
651,10.896,0
652,10.912,0
653,10.929,0
654,10.946,0.290291853777067
655,10.962,0
656,10.979,0
657,10.996,0
658,11.012,0
659,11.029,0
660,11.046,0
661,11.062,0
662,11.079,0
663,11.095,0
664,11.112,0
665,11.129,0
666,11.145,0
667,11.162,0
668,11.179,0
669,11.195,0
670,11.212,0
671,11.229,0
672,11.245,0
673,11.262,0
674,11.278,0
675,11.295,0
676,11.312,0
677,11.328,0
678,11.345,0
679,11.362,0
680,11.378,0
681,11.395,0
682,11.412,0
683,11.428,0
684,11.445,0
685,11.461,0
686,11.478,0.391907250912484
687,11.495,0
688,11.511,0
689,11.528,0
690,11.545,0
691,11.561,0
692,11.578,0
693,11.594,0
694,11.611,0
695,11.628,0
696,11.644,0
697,11.661,0.274278215223097
698,11.678,0
699,11.694,0
700,11.711,0
701,11.728,0
702,11.744,0
703,11.761,0
704,11.777,0
705,11.794,0.281668691560039
706,11.811,0
707,11.827,0
708,11.844,0
709,11.861,0
710,11.877,0
711,11.894,0.392808296423884
712,11.911,0
713,11.927,0
714,11.944,0
715,11.960,0
716,11.977,0
717,11.994,0
718,12.010,0
719,12.027,0.224394550473671
720,12.044,0
721,12.060,0
722,12.077,0.387039048402641
723,12.093,0.284579059270423
724,12.110,0
725,12.127,0.291613128742208
726,12.143,0.352337694543553
727,12.160,0
728,12.177,0
729,12.193,0.309413895894849
730,12.210,0
731,12.227,0
732,12.243,0
733,12.260,0
734,12.276,0
735,12.293,0
736,12.310,0
737,12.326,0
738,12.343,0
739,12.360,0.214669535479208
740,12.376,0
741,12.393,0
742,12.410,0
743,12.426,0
744,12.443,0
745,12.459,0
746,12.476,0
747,12.493,0
748,12.509,0.26361647878732
749,12.526,0
750,12.543,0
751,12.559,0
752,12.576,0
753,12.592,0
754,12.609,0
755,12.626,0
756,12.642,0
757,12.659,0.313190866705627
758,12.676,0
759,12.692,0
760,12.709,0
761,12.726,0.398717236456283
762,12.742,0
763,12.759,0
764,12.775,0
765,12.792,0
766,12.809,0
767,12.825,0
768,12.842,0
769,12.859,0
770,12.875,0
771,12.892,0
772,12.909,0
773,12.925,0.421817809578002
774,12.942,0
775,12.958,0
776,12.975,0
777,12.992,0.273370761821276
778,13.008,0
779,13.025,0
780,13.042,0.268883828791421
781,13.058,0
782,13.075,0.344284866613353
783,13.091,0
784,13.108,0
785,13.125,0
786,13.141,0
787,13.158,0
788,13.175,0
789,13.191,0
790,13.208,0
791,13.225,0.246602985051673
792,13.241,0
793,13.258,0
794,13.274,0.223543053974943
795,13.291,0
796,13.308,0.282544361825377
797,13.324,0
798,13.341,0
799,13.358,0
800,13.374,0
801,13.391,0
802,13.408,0
803,13.424,0.249870512554339
804,13.441,0
805,13.457,0
806,13.474,0
807,13.491,0
808,13.507,0
809,13.524,0.266084670019275
810,13.541,0.24809006418143
811,13.557,0
812,13.574,0.284552498564633
813,13.590,0
814,13.607,0.323963043132792
815,13.624,0.238435263646243
816,13.640,0
817,13.657,0.344413857447507
818,13.674,0
819,13.690,0
820,13.707,0
821,13.724,0.374526873410843
822,13.740,0
823,13.757,0
824,13.773,0
825,13.790,0
826,13.807,0
827,13.823,0
828,13.840,0
829,13.857,0
830,13.873,0
831,13.890,0.278346456692913
832,13.907,0
833,13.923,0
834,13.940,0
835,13.956,0.29939102613394
836,13.973,0.428216312438484
837,13.990,0
838,14.006,0
839,14.023,0
840,14.040,0
841,14.056,0
842,14.073,0
843,14.089,0.221087710563279
844,14.106,0.210300475593627
845,14.123,0
846,14.139,0.24500991941437
847,14.156,0.261328189078904
848,14.173,0
849,14.189,0
850,14.206,0
851,14.223,0.302444225721785
852,14.239,0.302755905511811
853,14.256,0.347829070804626
854,14.272,0
855,14.289,0
856,14.306,0
857,14.322,0.319293901738845
858,14.339,0
859,14.356,0
860,14.372,0
861,14.389,0
862,14.406,0
863,14.422,0
864,14.439,0
865,14.455,0
866,14.472,0
867,14.489,0.313550477515994
868,14.505,0
869,14.522,0
870,14.539,0.323511895607776
871,14.555,0
872,14.572,0
873,14.588,0
874,14.605,0
875,14.622,0
876,14.638,0.263303805774278
877,14.655,0
878,14.672,0.253528729135909
879,14.688,0.385549566313976
880,14.705,0
881,14.722,0.568131318179954
882,14.738,0
883,14.755,0
884,14.771,0
885,14.788,0
886,14.805,0
887,14.821,0.276919611733104
888,14.838,0
889,14.855,0
890,14.871,0
891,14.888,0
892,14.904,0
893,14.921,0.214486830503609
894,14.938,0
895,14.954,0
896,14.971,0
897,14.988,0
898,15.004,0
899,15.021,0
900,15.038,0
901,15.054,0
902,15.071,0
903,15.087,0
904,15.104,0
905,15.121,0.222445510503814
906,15.137,0
907,15.154,0.218456406480684
908,15.171,0
909,15.187,0
910,15.204,0
911,15.221,0
912,15.237,0
913,15.254,0
914,15.270,0
915,15.287,0
916,15.304,0
917,15.320,0
918,15.337,0.233887599834933
919,15.354,0
920,15.370,0
921,15.387,0
922,15.403,0.272927848435449
923,15.420,0
924,15.437,0
925,15.453,0
926,15.470,0
927,15.487,0
928,15.503,0
929,15.520,0
930,15.537,0
931,15.553,0
932,15.570,0
933,15.586,0
934,15.603,0
935,15.620,0
936,15.636,0.273502219693241
937,15.653,0
938,15.670,0
939,15.686,0.295872101070374
940,15.703,0
941,15.720,0
942,15.736,0
943,15.753,0
944,15.769,0
945,15.786,0.238922215258981
946,15.803,0
947,15.819,0
948,15.836,0
949,15.853,0
950,15.869,0
951,15.886,0
952,15.902,0
953,15.919,0.415883398181184
954,15.936,0
955,15.952,0
956,15.969,0
957,15.986,0
958,16.002,0
959,16.019,0.280448276790108
960,16.036,0.229935837793225
961,16.052,0
962,16.069,0.382294357980643
963,16.085,0
964,16.102,0
965,16.119,0.341659361671588
966,16.135,0
967,16.152,0
968,16.169,0
969,16.185,0
970,16.202,0
971,16.219,0
972,16.235,0
973,16.252,0
974,16.268,0
975,16.285,0.25571151292856
976,16.302,0
977,16.318,0
978,16.335,0.254077997482981
979,16.352,0.308019058347687
980,16.368,0
981,16.385,0.305802665169783
982,16.401,0
983,16.418,0.27755905511811
984,16.435,0
985,16.451,0
986,16.468,0
987,16.485,0
988,16.501,0
989,16.518,0
990,16.535,0
991,16.551,0
992,16.568,0
993,16.584,0
994,16.601,0
995,16.618,0
996,16.634,0
997,16.651,0.241799582333702
998,16.668,0
999,16.684,0
1000,16.701,0.289789443128691
1001,16.718,0
1002,16.734,0
1003,16.751,0.225007545290969
1004,16.767,0.214476946332636
1005,16.784,0
1006,16.801,0.549906252563156
1007,16.817,0
1008,16.834,0.280341200941191
1009,16.851,0
1010,16.867,0
1011,16.884,0
1012,16.900,0
1013,16.917,0.420241660771407
1014,16.934,0
1015,16.950,0
1016,16.967,0.322324289236795
1017,16.984,0
1018,17.000,0
1019,17.017,0
1020,17.034,0
1021,17.050,0.274996539739173
1022,17.067,0.275926997467602
1023,17.083,0
1024,17.100,0
1025,17.117,0.277851959789206
1026,17.133,0
1027,17.150,0
1028,17.167,0
1029,17.183,0
1030,17.200,0
1031,17.217,0
1032,17.233,0.285802902261729
1033,17.250,0.439252429872047
1034,17.266,0
1035,17.283,0
1036,17.300,0
1037,17.316,0
1038,17.333,0
1039,17.350,0
1040,17.366,0
1041,17.383,0.232069344908547
1042,17.399,0
1043,17.416,0
1044,17.433,0.287321860646325
1045,17.449,0
1046,17.466,0
1047,17.483,0.231947370714403
1048,17.499,0
1049,17.516,0
1050,17.533,0
1051,17.549,0.267817780101706
1052,17.566,0
1053,17.582,0
1054,17.599,0
1055,17.616,0
1056,17.632,0.228225315524524
1057,17.649,0
1058,17.666,0
1059,17.682,0
1060,17.699,0.454136934055118
1061,17.716,0
1062,17.732,0
1063,17.749,0
1064,17.765,0
1065,17.782,0
1066,17.799,0
1067,17.815,0
1068,17.832,0
1069,17.849,0.384536606996391
1070,17.865,0.225374893629019
1071,17.882,0
1072,17.898,0
1073,17.915,0
1074,17.932,0.293212506151575
1075,17.948,0
1076,17.965,0
1077,17.982,0
1078,17.998,0
1079,18.015,0
1080,18.032,0
1081,18.048,0
1082,18.065,0.325521570240732
1083,18.081,0
1084,18.098,0.307820958415354
1085,18.115,0
1086,18.131,0
1087,18.148,0
1088,18.165,0
1089,18.181,0
1090,18.198,0
1091,18.215,0.236232407136852
1092,18.231,0.339036483964895
1093,18.248,0
1094,18.264,0
1095,18.281,0
1096,18.298,0
1097,18.314,0.276902887139108
1098,18.331,0
1099,18.348,0.356745394008366
1100,18.364,0
1101,18.381,0.255004001727567
1102,18.397,0.31412613035187
1103,18.414,0
1104,18.431,0
1105,18.447,0
1106,18.464,0.368690759053068
1107,18.481,0
1108,18.497,0
1109,18.514,0
1110,18.531,0.23807685431533
1111,18.547,0.287434735636073
1112,18.564,0
1113,18.580,0
1114,18.597,0
1115,18.614,0
1116,18.630,0
1117,18.647,0
1118,18.664,0.274329414267552
1119,18.680,0
1120,18.697,0
1121,18.714,0
1122,18.730,0
1123,18.747,0
1124,18.763,0
1125,18.780,0
1126,18.797,0
1127,18.813,0
1128,18.830,0.270734908136483
1129,18.847,0
1130,18.863,0
1131,18.880,0
1132,18.897,0.54238845144357
1133,18.913,0
1134,18.930,0
1135,18.946,0
1136,18.963,0.427590774175689
1137,18.980,0
1138,18.996,0
1139,19.013,0
1140,19.030,0
1141,19.046,0
1142,19.063,0
1143,19.080,0
1144,19.096,0.344499595021325
1145,19.113,0
1146,19.129,0.358122898211942
1147,19.146,0
1148,19.163,0
1149,19.179,0.402189960629921
1150,19.196,0.263107788406332
1151,19.213,0
1152,19.229,0.626511172797736
1153,19.246,0.333243462670194
1154,19.262,0
1155,19.279,0.225428079119505
1156,19.296,0
1157,19.312,0
1158,19.329,0
1159,19.346,0
1160,19.362,0
1161,19.379,0.388470186649032
1162,19.396,0
1163,19.412,0.385198413918963
1164,19.429,0
1165,19.445,0
1166,19.462,0
1167,19.479,0.476682776103182
1168,19.495,0
1169,19.512,0.281114761472687
1170,19.529,0
1171,19.545,0
1172,19.562,0.395335248010991
1173,19.579,0
1174,19.595,0.363464003034777
1175,19.612,0
1176,19.628,0
1177,19.645,0.259958694738353
1178,19.662,0
1179,19.678,0.492555761462434
1180,19.695,0.66329605222687
1181,19.712,0.338902879449639
1182,19.728,0.357170589577182
1183,19.745,0.287010597369177
1184,19.761,0
1185,19.778,0
1186,19.795,0
1187,19.811,0.281029440411745
1188,19.828,0.227796691734334
1189,19.845,0.282290417128035
1190,19.861,0
1191,19.878,0.330450263236138
1192,19.895,0.37284592355643
1193,19.911,0
1194,19.928,0.412682464679708
1195,19.944,0
1196,19.961,0
1197,19.978,0
1198,19.994,0.221638965356381
1199,20.011,0.400803645577018
1200,20.028,0
1201,20.044,0
1202,20.061,0
1203,20.078,0
1204,20.094,0.376075211973015
1205,20.111,0.536610648888615
1206,20.127,0
1207,20.144,0.31588698659982
1208,20.161,0
1209,20.177,0.676137336470636
1210,20.194,0
1211,20.211,0
1212,20.227,0
1213,20.244,0.40875183265666
1214,20.260,0.219152159202756
1215,20.277,0.467215150047162
1216,20.294,0
1217,20.310,0.477405041471867
1218,20.327,0
1219,20.344,0
1220,20.360,0.504528744514846
1221,20.377,0.329925424971293
1222,20.394,0.311267346159367
1223,20.410,0.600066706139272
1224,20.427,0
1225,20.443,0
1226,20.460,0
1227,20.477,0
1228,20.493,0
1229,20.510,0.465820729012877
1230,20.527,0
1231,20.543,0.408530183727034
1232,20.560,0.259920695948163
1233,20.577,0
1234,20.593,0
1235,20.610,0.274511334276575
1236,20.626,0.411086643649524
1237,20.643,0.294094488188976
1238,20.660,0.257387064135294
1239,20.676,0.39488188976378
1240,20.693,0
1241,20.710,0.613525262467192
1242,20.726,0.306995750287073
1243,20.743,0.215463280865527
1244,20.759,0
1245,20.776,0.685007202468832
1246,20.793,0.393067687828084
