#"+ BPC(1083.03666) Scan unstir_50_Ecoli-r004.d "
#Point,X(Minutes),Y(Counts)
0,0.068,0
1,0.085,0
2,0.102,0.338992212061365
3,0.118,0
4,0.135,0
5,0.152,0
6,0.168,0.284897345156237
7,0.185,0
8,0.201,0
9,0.218,0.237710157278542
10,0.235,0.287747176604571
11,0.251,0
12,0.268,0.371125230372865
13,0.285,0
14,0.301,0
15,0.318,0
16,0.335,0
17,0.351,0
18,0.368,0
19,0.384,0.196039499311982
20,0.401,0
21,0.418,0
22,0.434,0
23,0.451,0
24,0.468,0
25,0.484,0.405739677219823
26,0.501,0
27,0.517,0
28,0.534,0
29,0.551,0
30,0.567,0.300667595139975
31,0.584,0
32,0.601,0.19805220576234
33,0.617,0
34,0.634,0.368821402192785
35,0.651,0.227366231915828
36,0.667,0
37,0.684,0
38,0.701,0
39,0.717,0
40,0.734,0
41,0.750,0.391496725891343
42,0.767,0
43,0.784,0
44,0.800,0
45,0.817,0
46,0.834,0
47,0.850,0.270586158055813
48,0.867,0
49,0.883,0.391507030049097
50,0.900,0
51,0.917,0.342965957807434
52,0.933,0.390775932492554
53,0.950,0
54,0.967,0.273083335559656
55,0.983,0
56,1.000,0.198967929236365
57,1.017,0
58,1.033,0
59,1.050,0
60,1.066,0
61,1.083,0
62,1.100,0
63,1.116,0.258436414410144
64,1.133,0
65,1.150,0
66,1.166,0
67,1.183,0.270793675596487
68,1.200,0
69,1.216,0
70,1.233,0
71,1.249,0
72,1.266,0.284043710087313
73,1.283,0
74,1.299,0.434316824364619
75,1.316,0
76,1.333,0.249143761960317
77,1.349,0
78,1.366,0.283225466287494
79,1.382,0
80,1.399,0
81,1.416,0
82,1.432,0.251657303169229
83,1.449,0
84,1.466,0
85,1.482,0
86,1.499,0
87,1.516,0
88,1.532,0
89,1.549,0
90,1.565,0.407096254715932
91,1.582,0
92,1.599,0.335446527959714
93,1.615,0
94,1.632,0.323710238643919
95,1.649,0.203123051577443
96,1.665,0.266549416436203
97,1.682,0
98,1.698,0
99,1.715,0
100,1.732,0
101,1.748,0.28818972847083
102,1.765,0.386771654824504
103,1.782,0
104,1.798,0
105,1.815,0
106,1.832,0.367123675110131
107,1.848,0.43610406881776
108,1.865,0.216633910061414
109,1.881,0
110,1.898,0.273618478479823
111,1.915,0
112,1.931,0.262587409233485
113,1.948,0
114,1.965,0.208093461127621
115,1.981,0
116,1.998,0
117,2.015,0
118,2.031,0
119,2.048,0
120,2.064,0
121,2.081,0
122,2.098,0
123,2.114,0
124,2.131,0.223103150103739
125,2.148,0
126,2.164,0.217751823358184
127,2.181,0
128,2.197,0.202404380483873
129,2.214,0
130,2.231,0.220788681124387
131,2.247,0
132,2.264,0.283532834629584
133,2.281,0
134,2.297,0
135,2.314,0.245249448975797
136,2.331,0
137,2.347,0
138,2.364,0.293572860521497
139,2.380,0.322839420221014
140,2.397,0.540042781364208
141,2.414,0.233871946334747
142,2.430,0
143,2.447,0
144,2.464,0
145,2.480,0
146,2.497,0.278507420782759
147,2.514,0
148,2.530,0
149,2.547,0
150,2.563,0
151,2.580,0
152,2.597,0
153,2.613,0.321427048052522
154,2.630,0
155,2.647,0
156,2.663,0
157,2.680,0.2206221753025
158,2.696,0
159,2.713,0
160,2.730,0
161,2.746,0.28939033848821
162,2.763,0.291921297236507
163,2.780,0
164,2.796,0
165,2.813,0.29298953395456
166,2.830,0.26828279824654
167,2.846,0
168,2.863,0
169,2.879,0
170,2.896,0.208168312637214
171,2.913,0
172,2.929,0
173,2.946,0
174,2.963,0
175,2.979,0
176,2.996,0
177,3.013,0
178,3.029,0
179,3.046,0
180,3.062,0
181,3.079,0
182,3.096,0
183,3.112,0.223167155901832
184,3.129,0
185,3.146,0
186,3.162,0
187,3.179,0
188,3.195,0
189,3.212,0
190,3.229,0
191,3.245,0
192,3.262,0
193,3.279,0.283001028851417
194,3.295,0.286284278935274
195,3.312,0.320062771711273
196,3.329,0
197,3.345,0
198,3.362,0
199,3.378,0
200,3.395,0.240336122117721
201,3.412,0
202,3.428,0.251339074479052
203,3.445,0
204,3.462,0.217455007995839
205,3.478,0
206,3.495,0
207,3.512,0
208,3.528,0
209,3.545,0
210,3.561,0
211,3.578,0
212,3.595,0
213,3.611,0.331153763147731
214,3.628,0
215,3.645,0
216,3.661,0.361270650047347
217,3.678,0.306467928486972
218,3.694,0
219,3.711,0
220,3.728,0
221,3.744,0
222,3.761,0.379172397027367
223,3.778,0
224,3.794,0
225,3.811,0
226,3.828,0.718458336131068
227,3.844,0
228,3.861,0
229,3.877,0.367539354201339
230,3.894,0
231,3.911,0.258866700815894
232,3.927,0
233,3.944,0.461619036899601
234,3.961,0
235,3.977,0
236,3.994,0
237,4.011,0.301626613640472
238,4.027,0
239,4.044,0
240,4.060,0
241,4.077,0.241951913582326
242,4.094,0
243,4.110,0.359766038103052
244,4.127,0.217150274239538
245,4.144,0
246,4.160,0.289585971119657
247,4.177,0
248,4.193,0
249,4.210,0
250,4.227,0
251,4.243,0
252,4.260,0
253,4.277,0.267408759774337
254,4.293,0
255,4.310,0.309829162310194
256,4.327,0.326432409774172
257,4.343,0
258,4.360,0
259,4.376,0
260,4.393,0.334555013401775
261,4.410,0.308007580422265
262,4.426,0.34089189478136
263,4.443,0
264,4.460,0
265,4.476,0
266,4.493,0.291474998403792
267,4.510,0.246536048946023
268,4.526,0
269,4.543,0
270,4.559,0
271,4.576,0.211034859068723
272,4.593,0
273,4.609,0
274,4.626,0.341041422161493
275,4.643,0
276,4.659,0
277,4.676,0
278,4.692,0
279,4.709,0
280,4.726,0
281,4.742,0
282,4.759,0.284676801052493
283,4.776,0
284,4.792,0
285,4.809,0
286,4.826,0
287,4.842,0
288,4.859,0
289,4.875,0
290,4.892,0
291,4.909,0
292,4.925,0.302513854314797
293,4.942,0
294,4.959,0
295,4.975,0
296,4.992,0.417040615870516
297,5.009,0.201762756388053
298,5.025,0
299,5.042,0.342628057543363
300,5.058,0
301,5.075,0
302,5.092,0
303,5.108,0
304,5.125,0
305,5.142,0
306,5.158,0.282840846035425
307,5.175,0
308,5.191,0.248341881865567
309,5.208,0
310,5.225,0
311,5.241,0
312,5.258,0
313,5.275,0
314,5.291,0.706947655178368
315,5.308,0.398136584636703
316,5.325,0
317,5.341,0
318,5.358,0.225576440696425
319,5.374,0
320,5.391,0.23326899210368
321,5.408,0.297731056545995
322,5.424,0
323,5.441,0.270544590146692
324,5.458,0.346811135766983
325,5.474,0
326,5.491,0.220661357447823
327,5.508,0.246575275001109
328,5.524,0
329,5.541,0
330,5.557,0
331,5.574,0.342698342437588
332,5.591,0
333,5.607,0
334,5.624,0.243235073954439
335,5.641,0
336,5.657,0
337,5.674,0
338,5.690,0
339,5.707,0
340,5.724,0
341,5.740,0.457934949224483
342,5.757,0
343,5.774,0
344,5.790,0
345,5.807,0.369384383902792
346,5.824,0.248717017608794
347,5.840,0.42639166830534
348,5.857,0
349,5.873,0
350,5.890,0
351,5.907,0
352,5.923,0
353,5.940,0
354,5.957,0
355,5.973,0.248392085361441
356,5.990,0.281771877487986
357,6.007,0.216962530728872
358,6.023,0.213908196876933
359,6.040,0
360,6.056,0
361,6.073,0
362,6.090,0
363,6.106,0
364,6.123,0.256328482320089
365,6.140,0
366,6.156,0
367,6.173,0
368,6.189,0
369,6.206,0.324388205387044
370,6.223,0
371,6.239,0
372,6.256,0.240139450288546
373,6.273,0
374,6.289,0.293463349572186
375,6.306,0
376,6.323,0.290970153220203
377,6.339,0
378,6.356,0.2308580241015
379,6.372,0
380,6.389,0
381,6.406,0
382,6.422,0
383,6.439,0.253169409046436
384,6.456,0
385,6.472,0.264955667672702
386,6.489,0
387,6.506,0.204770223886117
388,6.522,0.203372488305343
389,6.539,0
390,6.555,0
391,6.572,0
392,6.589,0.238228307120368
393,6.605,0
394,6.622,0
395,6.639,0
396,6.655,0
397,6.672,0
398,6.688,0
399,6.705,0
400,6.722,0
401,6.738,0
402,6.755,0
403,6.772,0
404,6.788,0.29582060129744
405,6.805,0
406,6.822,0
407,6.838,0
408,6.855,0
409,6.871,0
410,6.888,0
411,6.905,0
412,6.921,0
413,6.938,0
414,6.955,0
415,6.971,0
416,6.988,0.4141819439232
417,7.005,0
418,7.021,0
419,7.038,0
420,7.054,0
421,7.071,0
422,7.088,0
423,7.104,0.335310758972036
424,7.121,0.222597997551807
425,7.138,0
426,7.154,0.373033695045491
427,7.171,0
428,7.187,0
429,7.204,0
430,7.221,0.397483705004928
431,7.237,0
432,7.254,0.448293067791691
433,7.271,0
434,7.287,0
435,7.304,0.298784305398225
436,7.321,0
437,7.337,0
438,7.354,0.253215631390451
439,7.370,0
440,7.387,0
441,7.404,0.643638909938514
442,7.420,0.243075798606885
443,7.437,0
444,7.454,0.232489915812596
445,7.470,0
446,7.487,0.218193760487759
447,7.504,0
448,7.520,0
449,7.537,0
450,7.553,0
451,7.570,0
452,7.587,0
453,7.603,0
454,7.620,0
455,7.637,0
456,7.653,0
457,7.670,0.407617609970468
458,7.686,0
459,7.703,0.426446233504355
460,7.720,0.223755693093996
461,7.736,0
462,7.753,0.255063822594852
463,7.770,0.276558646947556
464,7.786,0
465,7.803,0
466,7.820,0.27119463028045
467,7.836,0
468,7.853,0
469,7.869,0
470,7.886,0
471,7.903,0
472,7.919,0
473,7.936,0
474,7.953,0
475,7.969,0
476,7.986,0.269821045069412
477,8.003,0
478,8.019,0.266601669054359
479,8.036,0
480,8.052,0
481,8.069,0
482,8.086,0.2534482067693
483,8.102,0
484,8.119,0
485,8.136,0
486,8.152,0.263589137296944
487,8.169,0
488,8.185,0.266778596126701
489,8.202,0
490,8.219,0
491,8.235,0
492,8.252,0
493,8.269,0.228715652120543
494,8.285,0
495,8.302,0
496,8.319,0
497,8.335,0
498,8.352,0
499,8.368,0
500,8.385,0
501,8.402,0
502,8.418,0
503,8.435,0
504,8.452,0
505,8.468,0
506,8.485,0.194977146502192
507,8.501,0
508,8.518,0
509,8.535,0
510,8.551,0
511,8.568,0
512,8.585,0.280957878298604
513,8.601,0
514,8.618,0
515,8.635,0
516,8.651,0
517,8.668,0
518,8.684,0
519,8.701,0
520,8.718,0
521,8.734,0
522,8.751,0
523,8.768,0
524,8.784,0
525,8.801,0
526,8.818,0
527,8.834,0
528,8.851,0.23280624174637
529,8.867,0
530,8.884,0
531,8.901,0
532,8.917,0
533,8.934,0
534,8.951,0
535,8.967,0
536,8.984,0
537,9.000,0
538,9.017,0
539,9.034,0
540,9.050,0
541,9.067,0
542,9.084,0
543,9.100,0
544,9.117,0
545,9.134,0
546,9.150,0
547,9.167,0
548,9.183,0
549,9.200,0
550,9.217,0
551,9.233,0
552,9.250,0
553,9.267,0
554,9.283,0
555,9.300,0
556,9.317,0
557,9.333,0
558,9.350,0
559,9.366,0
560,9.383,0.224724488835089
561,9.400,0
562,9.416,0
563,9.433,0
564,9.450,0
565,9.466,0
566,9.483,0
567,9.499,0
568,9.516,0.248318960969199
569,9.533,0
570,9.549,0
571,9.566,0
572,9.583,0
573,9.599,0
574,9.616,0
575,9.633,0
576,9.649,0
577,9.666,0
578,9.682,0
579,9.699,0
580,9.716,0
581,9.732,0
582,9.749,0
583,9.766,0
584,9.782,0
585,9.799,0
586,9.816,0
587,9.832,0
588,9.849,0
589,9.865,0
590,9.882,0
591,9.899,0
592,9.915,0
593,9.932,0
594,9.949,0
595,9.965,0
596,9.982,0
597,9.998,0
598,10.015,0
599,10.032,0
600,10.048,0
601,10.065,0
602,10.082,0
603,10.098,0
604,10.115,0
605,10.132,0
606,10.148,0
607,10.165,0
608,10.181,0
609,10.198,0
610,10.215,0
611,10.231,0
612,10.248,0
613,10.265,0
614,10.281,0
615,10.298,0
616,10.315,0
617,10.331,0
618,10.348,0
619,10.364,0
620,10.381,0
621,10.398,0
622,10.414,0
623,10.431,0
624,10.448,0
625,10.464,0
626,10.481,0
627,10.497,0
628,10.514,0
629,10.531,0
630,10.547,0
631,10.564,0
632,10.581,0
633,10.597,0
634,10.614,0
635,10.631,0
636,10.647,0.282666465729346
637,10.664,0
638,10.680,0
639,10.697,0
640,10.714,0
641,10.730,0
642,10.747,0
643,10.764,0
644,10.780,0
645,10.797,0
646,10.814,0
647,10.830,0
648,10.847,0
649,10.863,0
650,10.880,0
651,10.897,0
652,10.913,0
653,10.930,0
654,10.947,0
655,10.963,0
656,10.980,0
657,10.996,0
658,11.013,0
659,11.030,0
660,11.046,0
661,11.063,0
662,11.080,0
663,11.096,0
664,11.113,0
665,11.130,0
666,11.146,0
667,11.163,0
668,11.179,0
669,11.196,0
670,11.213,0
671,11.229,0
672,11.246,0
673,11.263,0
674,11.279,0
675,11.296,0
676,11.313,0
677,11.329,0
678,11.346,0.215766238504869
679,11.362,0
680,11.379,0
681,11.396,0
682,11.412,0
683,11.429,0
684,11.446,0
685,11.462,0
686,11.479,0
687,11.495,0
688,11.512,0.329974405455718
689,11.529,0
690,11.545,0.244393369596725
691,11.562,0
692,11.579,0
693,11.595,0
694,11.612,0.22352021967078
695,11.629,0.233684261370432
696,11.645,0
697,11.662,0
698,11.678,0
699,11.695,0.264894545282389
700,11.712,0
701,11.728,0.247593278950112
702,11.745,0.49879617461703
703,11.762,0.228797368189776
704,11.778,0
705,11.795,0
706,11.812,0.217709611439204
707,11.828,0
708,11.845,0
709,11.861,0
710,11.878,0
711,11.895,0
712,11.911,0
713,11.928,0.347969709504435
714,11.945,0
715,11.961,0
716,11.978,0.266630444585813
717,11.994,0
718,12.011,0.222041646216036
719,12.028,0.441040287299028
720,12.044,0
721,12.061,0
722,12.078,0
723,12.094,0
724,12.111,0.32615006999708
725,12.128,0
726,12.144,0
727,12.161,0.385409164146957
728,12.177,0.284615298110899
729,12.194,0
730,12.211,0
731,12.227,0.441480731496655
732,12.244,0
733,12.261,0.55365147080049
734,12.277,0
735,12.294,0.285540447547416
736,12.311,0
737,12.327,0
738,12.344,0
739,12.360,0
740,12.377,0
741,12.394,0
742,12.410,0.206399788379765
743,12.427,0
744,12.444,0
745,12.460,0
746,12.477,0
747,12.493,0
748,12.510,0
749,12.527,0.256616237634636
750,12.543,0
751,12.560,0
752,12.577,0
753,12.593,0
754,12.610,0.379457488482949
755,12.627,0.330301474644878
756,12.643,0.246524690953954
757,12.660,0
758,12.676,0
759,12.693,0
760,12.710,0
761,12.726,0
762,12.743,0.267659923619588
763,12.760,0
764,12.776,0.287469666901427
765,12.793,0.214437192430258
766,12.810,0
767,12.826,0
768,12.843,0.301606063871315
769,12.859,0
770,12.876,0
771,12.893,0
772,12.909,0
773,12.926,0
774,12.943,0.494051461249472
775,12.959,0.270265411872548
776,12.976,0
777,12.992,0.267201856970347
778,13.009,0
779,13.026,0
780,13.042,0
781,13.059,0
782,13.076,0
783,13.092,0
784,13.109,0.21273545492257
785,13.126,0.229234548428342
786,13.142,0.245472378843338
787,13.159,0.263277524344416
788,13.175,0
789,13.192,0
790,13.209,0
791,13.225,0
792,13.242,0.248247007503975
793,13.259,0
794,13.275,0.474757569865187
795,13.292,0
796,13.309,0
797,13.325,0
798,13.342,0
799,13.358,0
800,13.375,0
801,13.392,0
802,13.408,0
803,13.425,0
804,13.442,0.466921345712886
805,13.458,0
806,13.475,0.25192617728562
807,13.491,0.301707319785152
808,13.508,0.312160595094711
809,13.525,0
810,13.541,0.262282499838131
811,13.558,0
812,13.575,0.202559411220988
813,13.591,0
814,13.608,0
815,13.625,0.314631748745591
816,13.641,0
817,13.658,0
818,13.674,0
819,13.691,0
820,13.708,0.235094584416644
821,13.724,0
822,13.741,0.285594134551167
823,13.758,0
824,13.774,0
825,13.791,0
826,13.808,0
827,13.824,0.199535594654443
828,13.841,0
829,13.857,0
830,13.874,0
831,13.891,0.533305560037344
832,13.907,0
833,13.924,0
834,13.941,0
835,13.957,0
836,13.974,0
837,13.990,0
838,14.007,0
839,14.024,0.358658838788492
840,14.040,0
841,14.057,0.257551486316678
842,14.074,0
843,14.090,0.480573388721991
844,14.107,0
845,14.124,0
846,14.140,0
847,14.157,0
848,14.173,0
849,14.190,0.214911593511393
850,14.207,0
851,14.223,0.225767521349091
852,14.240,0.278305523691769
853,14.257,0
854,14.273,0
855,14.290,0
856,14.307,0
857,14.323,0
858,14.340,0.351705815612305
859,14.356,0
860,14.373,0.279406868371242
861,14.390,0
862,14.406,0
863,14.423,0
864,14.440,0
865,14.456,0
866,14.473,0
867,14.489,0
868,14.506,0
869,14.523,0.248594802101344
870,14.539,0
871,14.556,0
872,14.573,0
873,14.589,0
874,14.606,0
875,14.623,0.235637060267258
876,14.639,0
877,14.656,0
878,14.672,0
879,14.689,0
880,14.706,0.200491012554361
881,14.722,0
882,14.739,0
883,14.756,0
884,14.772,0
885,14.789,0.386843374104325
886,14.806,0
887,14.822,0
888,14.839,0
889,14.855,0
890,14.872,0
891,14.889,0
892,14.905,0
893,14.922,0
894,14.939,0
895,14.955,0
896,14.972,0
897,14.988,0
898,15.005,0.24465335930437
899,15.022,0
900,15.038,0.285184954104907
901,15.055,0.250836922427603
902,15.072,0.246643305860825
903,15.088,0
904,15.105,0
905,15.122,0
906,15.138,0
907,15.155,0
908,15.171,0
909,15.188,0
910,15.205,0.541837578296611
911,15.221,0
912,15.238,0
913,15.255,0
914,15.271,0
915,15.288,0.267692943761481
916,15.304,0
917,15.321,0.207193296346341
918,15.338,0
919,15.354,0
920,15.371,0
921,15.388,0.27111764182905
922,15.404,0.243681899704312
923,15.421,0
924,15.438,0
925,15.454,0.458704570279901
926,15.471,0
927,15.487,0
928,15.504,0
929,15.521,0
930,15.537,0.254048248319411
931,15.554,0.211988374212238
932,15.571,0
933,15.587,0
934,15.604,0
935,15.621,1.05706420082301
936,15.637,0.255704466039295
937,15.654,0.229704426803872
938,15.670,0
939,15.687,0.304478816216017
940,15.704,0
941,15.720,0
942,15.737,0
943,15.754,0.418461213801306
944,15.770,0.326287888107039
945,15.787,0.232569290027794
946,15.803,0
947,15.820,0
948,15.837,0.444606521169836
949,15.853,0.20600334176482
950,15.870,0.235431796761092
951,15.887,0
952,15.903,0.240131297709187
953,15.920,0
954,15.937,0
955,15.953,0
956,15.970,0
957,15.986,0
958,16.003,0
959,16.020,0.362871922016935
960,16.036,0
961,16.053,0
962,16.070,0.226648204832118
963,16.086,0
964,16.103,0
965,16.120,0
966,16.136,0
967,16.153,0
968,16.169,0
969,16.186,0
970,16.203,0
971,16.219,0
972,16.236,0
973,16.253,0
974,16.269,0
975,16.286,0
976,16.302,0.513839308196084
977,16.319,0
978,16.336,0
979,16.352,0.3627272832571
980,16.369,0
981,16.386,0
982,16.402,0
983,16.419,0
984,16.436,0.464026345754852
985,16.452,0
986,16.469,0.346654670644271
987,16.485,0
988,16.502,0.347167185399825
989,16.519,0
990,16.535,0
991,16.552,0
992,16.569,0.297461626239272
993,16.585,0
994,16.602,0
995,16.619,0
996,16.635,0
997,16.652,0
998,16.668,0
999,16.685,0
1000,16.702,0.298319213186879
1001,16.718,0.272223699489768
1002,16.735,0.276916862795381
1003,16.752,0
1004,16.768,0.356624675100539
1005,16.785,0
1006,16.801,0
1007,16.818,0
1008,16.835,0.275190623639851
1009,16.851,0
1010,16.868,0.221789545629171
1011,16.885,0
1012,16.901,0
1013,16.918,0
1014,16.935,0
1015,16.951,0
1016,16.968,0.256578006867515
1017,16.984,0.362625383333403
1018,17.001,0.222874980337794
1019,17.018,0
1020,17.034,0
1021,17.051,0
1022,17.068,0
1023,17.084,0.35586775860326
1024,17.101,0.244864404262684
1025,17.118,0
1026,17.134,0.332638381513202
1027,17.151,0
1028,17.167,0
1029,17.184,0
1030,17.201,0.254134516367424
1031,17.217,0
1032,17.234,0.312356871736018
1033,17.251,0
1034,17.267,0
1035,17.284,0.252388605638
1036,17.300,0.282184512168948
1037,17.317,0
1038,17.334,0
1039,17.350,0.203944720338789
1040,17.367,0
1041,17.384,0
1042,17.400,0
1043,17.417,0.37404408796888
1044,17.434,0
1045,17.450,0
1046,17.467,0.284957267346356
1047,17.483,0
1048,17.500,0
1049,17.517,0
1050,17.533,0.251101229928625
1051,17.550,0
1052,17.567,0.430382655951741
1053,17.583,0
1054,17.600,0
1055,17.617,0
1056,17.633,0.20815300276646
1057,17.650,0
1058,17.666,0
1059,17.683,0
1060,17.700,0.302331775163578
1061,17.716,0
1062,17.733,0
1063,17.750,0
1064,17.766,0
1065,17.783,0
1066,17.799,0.225672485985034
1067,17.816,0
1068,17.833,0
1069,17.849,0
1070,17.866,0.21465390174802
1071,17.883,0
1072,17.899,0
1073,17.916,0
1074,17.933,0.253413020412424
1075,17.949,0.386223163336338
1076,17.966,0
1077,17.982,0
1078,17.999,0.240390526314271
1079,18.016,0.439847522492665
1080,18.032,0.332136170915402
1081,18.049,0
1082,18.066,0
1083,18.082,0.438717753559843
1084,18.099,0.244950116120364
1085,18.116,0
1086,18.132,0
1087,18.149,0.272424454926916
1088,18.165,0
1089,18.182,0.391851165499537
1090,18.199,0.52492312770456
1091,18.215,0
1092,18.232,0
1093,18.249,0.200977035086144
1094,18.265,0
1095,18.282,0.29374952413526
1096,18.298,0.244507315432114
1097,18.315,0
1098,18.332,0
1099,18.348,0
1100,18.365,0.22882492888445
1101,18.382,0
1102,18.398,0
1103,18.415,0
1104,18.432,0.284382312907595
1105,18.448,0.248478821780262
1106,18.465,0.325123811012604
1107,18.481,0.44524997483912
1108,18.498,0
1109,18.515,0
1110,18.531,0
1111,18.548,0
1112,18.565,0
1113,18.581,0.343162175902389
1114,18.598,0
1115,18.615,0
1116,18.631,0
1117,18.648,0
1118,18.664,0
1119,18.681,0
1120,18.698,0
1121,18.714,0
1122,18.731,0
1123,18.748,0.260497685058552
1124,18.764,0.239671269757192
1125,18.781,0.241240751058256
1126,18.797,0
1127,18.814,0.287690884288205
1128,18.831,0.244914168660927
1129,18.847,0
1130,18.864,0.297053265441923
1131,18.881,0.209474437815457
1132,18.897,0.222974684773333
1133,18.914,0.236948161885325
1134,18.931,0.268599504731594
1135,18.947,0
1136,18.964,0
1137,18.980,0.260489108018149
1138,18.997,0
1139,19.014,0
1140,19.030,0
1141,19.047,0
1142,19.064,0
1143,19.080,0
1144,19.097,0.259342594828976
1145,19.114,0
1146,19.130,0.267443477760405
1147,19.147,0
1148,19.163,0.463788969575232
1149,19.180,0
1150,19.197,0
1151,19.213,0
1152,19.230,0.437312084948526
1153,19.247,0.390172378161391
1154,19.263,0.236239136303062
1155,19.280,0
1156,19.296,0.272607119541644
1157,19.313,0.353439577973922
1158,19.330,0.33301255124164
1159,19.346,0
1160,19.363,0
1161,19.380,0
1162,19.396,0.556406018062776
1163,19.413,0.430147328894402
1164,19.430,0
1165,19.446,0.269541778975741
1166,19.463,0
1167,19.479,0.242533059297693
1168,19.496,0.351029019796198
1169,19.513,0.331844522268521
1170,19.529,0.265678832198702
1171,19.546,0.292866059700566
1172,19.563,0.254208314042701
1173,19.579,0.324311129116118
1174,19.596,0
1175,19.613,0.619121278943817
1176,19.629,0.302395180861574
1177,19.646,0
1178,19.662,0.269349922583926
