#"+ BPC(1083.03666) Scan unstir_50_Ecoli-r008.d "
#Point,X(Minutes),Y(Counts)
0,0.058,0
1,0.074,0
2,0.091,0
3,0.108,0
4,0.124,0
5,0.141,0
6,0.157,0
7,0.174,0.328137187184336
8,0.191,0
9,0.207,0
10,0.224,0
11,0.241,0
12,0.257,0
13,0.274,0
14,0.291,0
15,0.307,0
16,0.324,0
17,0.340,0
18,0.357,0
19,0.374,0
20,0.390,0
21,0.407,0
22,0.424,0.669664802440122
23,0.440,0
24,0.457,0
25,0.473,0
26,0.490,0
27,0.507,0
28,0.523,0
29,0.540,0
30,0.557,0
31,0.573,0
32,0.590,0
33,0.607,0
34,0.623,0
35,0.640,0.408281040841035
36,0.656,0.48934119312008
37,0.673,0.382293987576602
38,0.690,0
39,0.706,0
40,0.723,0
41,0.740,0
42,0.756,0
43,0.773,0
44,0.790,0
45,0.806,0
46,0.823,0.458610653675765
47,0.839,0
48,0.856,0
49,0.873,0
50,0.889,0
51,0.906,0
52,0.923,0
53,0.939,0
54,0.956,0
55,0.972,0
56,0.989,0
57,1.006,0
58,1.022,0.417531913523607
59,1.039,0
60,1.056,0
61,1.072,0.389565597266197
62,1.089,0.510829604314312
63,1.106,0
64,1.122,0
65,1.139,0
66,1.155,0
67,1.172,0.435550357052667
68,1.189,0
69,1.205,0
70,1.222,0
71,1.239,0
72,1.255,0
73,1.272,0
74,1.289,0
75,1.305,0
76,1.322,0
77,1.338,0
78,1.355,0
79,1.372,0
80,1.388,0
81,1.405,0
82,1.422,0
83,1.438,0
84,1.455,0
85,1.471,0
86,1.488,0
87,1.505,0.349708523109134
88,1.521,0
89,1.538,0.418272586605803
90,1.555,0.353883572051231
91,1.571,0.433031174479544
92,1.588,0
93,1.605,0
94,1.621,0.441994021276269
95,1.638,0
96,1.654,0.426539268499179
97,1.671,0
98,1.688,0
99,1.704,0
100,1.721,0
101,1.738,0
102,1.754,0
103,1.771,0
104,1.788,0
105,1.804,0
106,1.821,0
107,1.837,0
108,1.854,0
109,1.871,0
110,1.887,0.473341632723334
111,1.904,0
112,1.921,0
113,1.937,0
114,1.954,0
115,1.970,0
116,1.987,0
117,2.004,0
118,2.020,0
119,2.037,0
120,2.054,0
121,2.070,0.496344697527054
122,2.087,0
123,2.104,0
124,2.120,0
125,2.137,0
126,2.153,0.378812377043454
127,2.170,0
128,2.187,0
129,2.203,0
130,2.220,0
131,2.237,0
132,2.253,0
133,2.270,0.348485481585333
134,2.287,0
135,2.303,0.377046419251969
136,2.320,0
137,2.336,0
138,2.353,0.377941593683472
139,2.370,0.646987885317817
140,2.386,0
141,2.403,0
142,2.420,0.749034429939403
143,2.436,0
144,2.453,0.388728268729387
145,2.469,0
146,2.486,0
147,2.503,0
148,2.519,0.596436615857309
149,2.536,0
150,2.553,0
151,2.569,0
152,2.586,0
153,2.603,0.871120954027724
154,2.619,0
155,2.636,0
156,2.652,0
157,2.669,0
158,2.686,0
159,2.702,0.402526148053987
160,2.719,0.336187518062657
161,2.736,0
162,2.752,0
163,2.769,0
164,2.786,0
165,2.802,0
166,2.819,0
167,2.835,0
168,2.852,0
169,2.869,0
170,2.885,0
171,2.902,0
172,2.919,0
173,2.935,0
174,2.952,0.441534594688441
175,2.968,0.527466525762222
176,2.985,0
177,3.002,0
178,3.018,0.335348813997141
179,3.035,0
180,3.052,0
181,3.068,0
182,3.085,0
183,3.102,0
184,3.118,0
185,3.135,0
186,3.151,0
187,3.168,0.599248884296876
188,3.185,0
189,3.201,0
190,3.218,0
191,3.235,0
192,3.251,0
193,3.268,0
194,3.285,0
195,3.301,0
196,3.318,0.374159503817084
197,3.334,0
198,3.351,0
199,3.368,0
200,3.384,0
201,3.401,0
202,3.418,0
203,3.434,0
204,3.451,0
205,3.467,0
206,3.484,0
207,3.501,0
208,3.517,0
209,3.534,0
210,3.551,0
211,3.567,0
212,3.584,0
213,3.601,0.454430667568133
214,3.617,0
215,3.634,0.427104266915199
216,3.651,0
217,3.667,0
218,3.684,0.367221459838712
219,3.700,0
220,3.717,0
221,3.734,0
222,3.750,0
223,3.767,0
224,3.784,0
225,3.800,0.510875733651991
226,3.817,0
227,3.833,0
228,3.850,0
229,3.867,0
230,3.883,0.33335736774991
231,3.900,0
232,3.917,0
233,3.933,0
234,3.950,0.492828011011901
235,3.967,0
236,3.983,0
237,4.000,0.423573628608884
238,4.016,0
239,4.033,0
240,4.050,0
241,4.066,0
242,4.083,0
243,4.100,0
244,4.116,0
245,4.133,0
246,4.150,0
247,4.166,0
248,4.183,0
249,4.199,0
250,4.216,0
251,4.233,0
252,4.249,0
253,4.266,0
254,4.283,0
255,4.299,0
256,4.316,0
257,4.332,0
258,4.349,0
259,4.366,0.43042243516245
260,4.382,0
261,4.399,0
262,4.416,0
263,4.432,0
264,4.449,0
265,4.466,0
266,4.482,0.491440986815927
267,4.499,0
268,4.515,0
269,4.532,0
270,4.549,0
271,4.565,0
272,4.582,0.356393494368601
273,4.599,0
274,4.615,0
275,4.632,0
276,4.649,0
277,4.665,0
278,4.682,0
279,4.698,0
280,4.715,0
281,4.732,0
282,4.748,0
283,4.765,0
284,4.782,0
285,4.798,0
286,4.815,0
287,4.831,0.415720931730011
288,4.848,0
289,4.865,0
290,4.881,0
291,4.898,0
292,4.915,0
293,4.931,0
294,4.948,0
295,4.965,0
296,4.981,0
297,4.998,0
298,5.014,0.596680723076612
299,5.031,0
300,5.048,0
301,5.064,0
302,5.081,0
303,5.098,0
304,5.114,0
305,5.131,0
306,5.148,0.876654706012258
307,5.164,0
308,5.181,0
309,5.197,0
310,5.214,0
311,5.231,0
312,5.247,0
313,5.264,0
314,5.281,0
315,5.297,0
316,5.314,0
317,5.330,0
318,5.347,0
319,5.364,0
320,5.380,0
321,5.397,0
322,5.414,0
323,5.430,0
324,5.447,0
325,5.464,0
326,5.480,0
327,5.497,0
328,5.513,0.434212655386011
329,5.530,0
330,5.547,0
331,5.563,0
332,5.580,0
333,5.597,0
334,5.613,0
335,5.630,0
336,5.647,0.454501556422521
337,5.663,0.336611745853418
338,5.680,0.373228369135123
339,5.696,0
340,5.713,0
341,5.730,0
342,5.746,0
343,5.763,0
344,5.780,0
345,5.796,0
346,5.813,0
347,5.829,0.43943720816783
348,5.846,0
349,5.863,0
350,5.879,0
351,5.896,0
352,5.913,0
353,5.929,0
354,5.946,0
355,5.963,0
356,5.979,0
357,5.996,0
358,6.012,0.361945717738617
359,6.029,0
360,6.046,0
361,6.062,0
362,6.079,0
363,6.096,0
364,6.112,0.413878165398099
365,6.129,0.420740825490776
366,6.146,0
367,6.162,0
368,6.179,0.388243198356396
369,6.195,0
370,6.212,0
371,6.229,0
372,6.245,0
373,6.262,0
374,6.279,0
375,6.295,0
376,6.312,0
377,6.328,0
378,6.345,0
379,6.362,0
380,6.378,0
381,6.395,0.376950353309657
382,6.412,0
383,6.428,0
384,6.445,0.390317250015029
385,6.462,0
386,6.478,0.696135280355702
387,6.495,0.456405337277752
388,6.511,0
389,6.528,0.384649482233703
390,6.545,0
391,6.561,0
392,6.578,0
393,6.595,0
394,6.611,0
395,6.628,0
396,6.644,0
397,6.661,0
398,6.678,0
399,6.694,0
400,6.711,0
401,6.728,0
402,6.744,0
403,6.761,0
404,6.778,0
405,6.794,0.347322152745184
406,6.811,0
407,6.827,0
408,6.844,0
409,6.861,0
410,6.877,0.459685825863662
411,6.894,0
412,6.911,0
413,6.927,0
414,6.944,0.386783295702012
415,6.961,0
416,6.977,0
417,6.994,0
418,7.010,0
419,7.027,0
420,7.044,0
421,7.060,0
422,7.077,0
423,7.094,0
424,7.110,0
425,7.127,0
426,7.143,0
427,7.160,0
428,7.177,0
429,7.193,0
430,7.210,0
431,7.227,0
432,7.243,0
433,7.260,0
434,7.277,0
435,7.293,0
436,7.310,0
437,7.326,0
438,7.343,0
439,7.360,0
440,7.376,0
441,7.393,0
442,7.410,0
443,7.426,0
444,7.443,0
445,7.460,0
446,7.476,0
447,7.493,0
448,7.509,0
449,7.526,0
450,7.543,0
451,7.559,0
452,7.576,0.699327685978398
453,7.593,0
454,7.609,0
455,7.626,0
456,7.642,0
457,7.659,0.341285202884353
458,7.676,0.474863114850327
459,7.692,0
460,7.709,0
461,7.726,0.611720901326896
462,7.742,0.353589503664283
463,7.759,0
464,7.776,0
465,7.792,0
466,7.809,0
467,7.825,0
468,7.842,0
469,7.859,0
470,7.875,0.327993665501665
471,7.892,0
472,7.909,0
473,7.925,0
474,7.942,0
475,7.959,0
476,7.975,0
477,7.992,0
478,8.008,0
479,8.025,0
480,8.042,0
481,8.058,0
482,8.075,0
483,8.092,0
484,8.108,0
485,8.125,0
486,8.141,0
487,8.158,0.359902443534782
488,8.175,0
489,8.191,0
490,8.208,0
491,8.225,0
492,8.241,0
493,8.258,0
494,8.275,0
495,8.291,0.398049072308856
496,8.308,0
497,8.324,0
498,8.341,0
499,8.358,0
500,8.374,0
501,8.391,0
502,8.408,0
503,8.424,0
504,8.441,0
505,8.458,0
506,8.474,0
507,8.491,0
508,8.507,0
509,8.524,0
510,8.541,0
511,8.557,0
512,8.574,0
513,8.591,0
514,8.607,0
515,8.624,0
516,8.640,0.363227612240627
517,8.657,0.52133756285616
518,8.674,0
519,8.690,0
520,8.707,0
521,8.724,0
522,8.740,0
523,8.757,0
524,8.774,0
525,8.790,0
526,8.807,0
527,8.823,0
528,8.840,0
529,8.857,0
530,8.873,0
531,8.890,0
532,8.907,0
533,8.923,0
534,8.940,0
535,8.957,0
536,8.973,0
537,8.990,0
538,9.006,0
539,9.023,0
540,9.040,0
541,9.056,0
542,9.073,0
543,9.090,0
544,9.106,0
545,9.123,0
546,9.140,0
547,9.156,0
548,9.173,0
549,9.189,0
550,9.206,0
551,9.223,0
552,9.239,0
553,9.256,0
554,9.273,0
555,9.289,0
556,9.306,0
557,9.322,0
558,9.339,0
559,9.356,0
560,9.372,0.417330693324319
561,9.389,0
562,9.406,0
563,9.422,0
564,9.439,0.342348732204274
565,9.456,0.486705483615142
566,9.472,0
567,9.489,0
568,9.505,0
569,9.522,0
570,9.539,0
571,9.555,0
572,9.572,0
573,9.589,0
574,9.605,0
575,9.622,0
576,9.639,0
577,9.655,0
578,9.672,0
579,9.688,0
580,9.705,0
581,9.722,0
582,9.738,0
583,9.755,0
584,9.772,0
585,9.788,0
586,9.805,0
587,9.821,0
588,9.838,0
589,9.855,0
590,9.871,0
591,9.888,0
592,9.905,0
593,9.921,0
594,9.938,0
595,9.955,0
596,9.971,0
597,9.988,0
598,10.004,0
599,10.021,0
600,10.038,0
601,10.054,0
602,10.071,0
603,10.088,0
604,10.104,0
605,10.121,0
606,10.138,0
607,10.154,0
608,10.171,0
609,10.187,0
610,10.204,0
611,10.221,0
612,10.237,0
613,10.254,0
614,10.271,0
615,10.287,0
616,10.304,0
617,10.320,0
618,10.337,0
619,10.354,0
620,10.370,0
621,10.387,0
622,10.404,0
623,10.420,0
624,10.437,0
625,10.454,0
626,10.470,0
627,10.487,0
628,10.503,0
629,10.520,0
630,10.537,0
631,10.553,0
632,10.570,0
633,10.587,0
634,10.603,0
635,10.620,0
636,10.637,0
637,10.653,0
638,10.670,0
639,10.686,0
640,10.703,0
641,10.720,0
642,10.736,0
643,10.753,0
644,10.770,0
645,10.786,0
646,10.803,0.41712947312503
647,10.819,0
648,10.836,0
649,10.853,0
650,10.869,0.430323790103815
651,10.886,0
652,10.903,0
653,10.919,0
654,10.936,0
655,10.953,0
656,10.969,0
657,10.986,0
658,11.002,0
659,11.019,0
660,11.036,0
661,11.052,0
662,11.069,0
663,11.086,0
664,11.102,0
665,11.119,0
666,11.136,0
667,11.152,0
668,11.169,0
669,11.185,0
670,11.202,0
671,11.219,0
672,11.235,0
673,11.252,0
674,11.269,0
675,11.285,0
676,11.302,0
677,11.318,0
678,11.335,0.322933881408423
679,11.352,0
680,11.368,0
681,11.385,0
682,11.402,0
683,11.418,0.427995363886608
684,11.435,0
685,11.452,0
686,11.468,0
687,11.485,0
688,11.501,0
689,11.518,0
690,11.535,0
691,11.551,0
692,11.568,0
693,11.585,0
694,11.601,0
695,11.618,0
696,11.635,0
697,11.651,0
698,11.668,0
699,11.684,0
700,11.701,0
701,11.718,0
702,11.734,0
703,11.751,0
704,11.768,0
705,11.784,0
706,11.801,0
707,11.817,0
708,11.834,0
709,11.851,0
710,11.867,0
711,11.884,0.345654913701373
712,11.901,0
713,11.917,0
714,11.934,0
715,11.951,0
716,11.967,0
717,11.984,0
718,12.000,0
719,12.017,0
720,12.034,0
721,12.050,0
722,12.067,0
723,12.084,0
724,12.100,0
725,12.117,0
726,12.134,0
727,12.150,0
728,12.167,0.543407134928708
729,12.183,0
730,12.200,0
731,12.217,0
732,12.233,0
733,12.250,0
734,12.267,0
735,12.283,0.384746432444468
736,12.300,0.360636902174788
737,12.316,0
738,12.333,0
739,12.350,0
740,12.366,0
741,12.383,0
742,12.400,0
743,12.416,0
744,12.433,0
745,12.450,0
746,12.466,0
747,12.483,0
748,12.499,0
749,12.516,0
750,12.533,0
751,12.549,0
752,12.566,0
753,12.583,0
754,12.599,0
755,12.616,0
756,12.633,0
757,12.649,0
758,12.666,0.390200526579113
759,12.682,0.341168847893627
760,12.699,0
761,12.716,0
762,12.732,0
763,12.749,0
764,12.766,0
765,12.782,0
766,12.799,0
767,12.815,0
768,12.832,0.334684703825246
769,12.849,0
770,12.865,0
771,12.882,0.487579975990029
772,12.899,0
773,12.915,0.429001464883051
774,12.932,0
775,12.949,0
776,12.965,0
777,12.982,0
778,12.998,0
779,13.015,0
780,13.032,0
781,13.048,0.479973695253643
782,13.065,0
783,13.082,0
784,13.098,0
785,13.115,0
786,13.132,0
787,13.148,0
788,13.165,0
789,13.181,0.446757329807327
790,13.198,0
791,13.215,0
792,13.231,0.837402717107792
793,13.248,0
794,13.265,0
795,13.281,0
796,13.298,0
797,13.314,0
798,13.331,0
799,13.348,0
800,13.364,0
801,13.381,0
802,13.398,0
803,13.414,0
804,13.431,0
805,13.448,0
806,13.464,0
807,13.481,0
808,13.497,0
809,13.514,0
810,13.531,0
811,13.547,0
812,13.564,0
813,13.581,0
814,13.597,0
815,13.614,0
816,13.631,0
817,13.647,0
818,13.664,0
819,13.680,0
820,13.697,0
821,13.714,0
822,13.730,0
823,13.747,0
824,13.764,0
825,13.780,0
826,13.797,0
827,13.813,0
828,13.830,0.43947346317444
829,13.847,0
830,13.863,0.402535088990576
831,13.880,0
832,13.897,0
833,13.913,0
834,13.930,0
835,13.947,0.47689187231371
836,13.963,0
837,13.980,0
838,13.996,0
839,14.013,0.476244489553402
840,14.030,0
841,14.046,0
842,14.063,0
843,14.080,0
844,14.096,0
845,14.113,0
846,14.130,0
847,14.146,0
848,14.163,0
849,14.179,0
850,14.196,0.520810391479557
851,14.213,0
852,14.229,0
853,14.246,0
854,14.263,0.537842237044186
855,14.279,0
856,14.296,0
857,14.312,0
858,14.329,0
859,14.346,0
860,14.362,0
861,14.379,0
862,14.396,0
863,14.412,0.383833793711001
864,14.429,0
865,14.446,0.356843906330802
866,14.462,0
867,14.479,0
868,14.495,0
869,14.512,0
870,14.529,0
871,14.545,0
872,14.562,0
873,14.579,0
874,14.595,0
875,14.612,0
876,14.629,0
877,14.645,0
878,14.662,0
879,14.678,0
880,14.695,0
881,14.712,0
882,14.728,0
883,14.745,0
884,14.762,0
885,14.778,0
886,14.795,0
887,14.811,0
888,14.828,0
889,14.845,0
890,14.861,0
891,14.878,0
892,14.895,0
893,14.911,0
894,14.928,0
895,14.945,0
896,14.961,0
897,14.978,0
898,14.994,0
899,15.011,0
900,15.028,0
901,15.044,0
902,15.061,0
903,15.078,0.4128875390996
904,15.094,0
905,15.111,0
906,15.128,0.638759570850135
907,15.144,0
908,15.161,0
909,15.177,0
910,15.194,0
911,15.211,0
912,15.227,0
913,15.244,0
914,15.261,0
915,15.277,0
916,15.294,0
917,15.310,0
918,15.327,0
919,15.344,0
920,15.360,0
921,15.377,0
922,15.394,0
923,15.410,0
924,15.427,0
925,15.444,0
926,15.460,0.329246551085784
927,15.477,0
928,15.493,0
929,15.510,0
930,15.527,0
931,15.543,0
932,15.560,0
933,15.577,0
934,15.593,0
935,15.610,0
936,15.626,0
937,15.643,0.544139653090717
938,15.660,0
939,15.676,0
940,15.693,0
941,15.710,0
942,15.726,0
943,15.743,0
944,15.760,0
945,15.776,0
946,15.793,0
947,15.809,0
948,15.826,0
949,15.843,0.49170901840951
950,15.859,0
951,15.876,0
952,15.893,0
953,15.909,0.721660131411882
954,15.926,0
955,15.943,0
956,15.959,0
957,15.976,0
958,15.992,0
959,16.009,0
960,16.026,0.599951091701327
961,16.042,0
962,16.059,0
963,16.076,0
964,16.092,0
965,16.109,0
966,16.125,0
967,16.142,0.421576557431766
968,16.159,0
969,16.175,0
970,16.192,0
971,16.209,0
972,16.225,0
973,16.242,0
974,16.259,0
975,16.275,0
976,16.292,0
977,16.309,0
978,16.325,0
979,16.342,0
980,16.358,0
981,16.375,0.416929628454448
982,16.392,0.517585710058293
983,16.408,0
984,16.425,0.327513311227094
985,16.442,0
986,16.458,0
987,16.475,0
988,16.491,0
989,16.508,0
990,16.525,0
991,16.541,0
992,16.558,0
993,16.575,0
994,16.591,0
995,16.608,0
996,16.625,0
997,16.641,0
998,16.658,0.39962960391816
999,16.674,0
1000,16.691,0.45409248401054
1001,16.708,0
1002,16.724,0
1003,16.741,0.416466075280501
1004,16.758,0
1005,16.774,0
1006,16.791,0
1007,16.808,0
1008,16.824,0
1009,16.841,0
1010,16.857,0
1011,16.874,0
1012,16.891,0
1013,16.907,0
1014,16.924,0
1015,16.941,0
1016,16.957,0.428539631119987
1017,16.974,0.448698053433521
1018,16.990,0
1019,17.007,0
1020,17.024,0
1021,17.040,0
1022,17.057,0
1023,17.074,0
1024,17.090,0
1025,17.107,0
1026,17.124,0
1027,17.140,0.463249525984948
1028,17.157,0
1029,17.173,0
1030,17.190,0
1031,17.207,0
1032,17.223,0
1033,17.240,0
1034,17.257,0
1035,17.273,0
1036,17.290,0
1037,17.307,0
1038,17.323,0
1039,17.340,0
1040,17.356,0.42297704215865
1041,17.373,0
1042,17.390,0
1043,17.406,0.46233632230219
1044,17.423,0
1045,17.440,0
1046,17.456,0.476334291927498
1047,17.473,0
1048,17.489,0
1049,17.506,0
1050,17.523,0
1051,17.539,0
1052,17.556,0.472446310913756
1053,17.573,0
1054,17.589,0
1055,17.606,0.585800438389645
1056,17.623,0
1057,17.639,0.430984928151184
1058,17.656,0
1059,17.672,0
1060,17.689,0
1061,17.706,0
1062,17.722,0
1063,17.739,0
1064,17.756,0.527287461400306
1065,17.772,0
1066,17.789,0
1067,17.806,0.478312400458883
1068,17.822,0
1069,17.839,0.420227802409436
1070,17.855,0
1071,17.872,0.398199226004931
1072,17.889,0
1073,17.905,0
1074,17.922,0
1075,17.939,0
1076,17.955,0
1077,17.972,0.409189577551397
1078,17.988,0
1079,18.005,0.731012842344728
1080,18.022,0
1081,18.038,0
1082,18.055,0
1083,18.072,0.415550366170458
1084,18.088,0
1085,18.105,0.540893307092333
1086,18.122,0
1087,18.138,0
1088,18.155,0
1089,18.171,0
1090,18.188,0
1091,18.205,0
1092,18.221,0.516876379380186
1093,18.238,0.641296242288236
1094,18.255,0
1095,18.271,0
1096,18.288,0
1097,18.305,0
1098,18.321,0
1099,18.338,0
1100,18.354,0
1101,18.371,0
1102,18.388,0
1103,18.404,0
1104,18.421,0
1105,18.438,0
1106,18.454,0
1107,18.471,0.325534048234117
1108,18.487,0
1109,18.504,0.402113120996976
1110,18.521,0.657081121954784
1111,18.537,0
1112,18.554,0
1113,18.571,0.412098968142818
1114,18.587,0
1115,18.604,0.421976885411259
1116,18.621,0
1117,18.637,0
1118,18.654,0
1119,18.670,0.437575823072361
1120,18.687,0
1121,18.704,0
1122,18.720,0
1123,18.737,0
1124,18.754,0
1125,18.770,0
1126,18.787,0.384471424955304
1127,18.804,0
1128,18.820,0
1129,18.837,0
1130,18.853,0
1131,18.870,0
1132,18.887,0.339106758422134
1133,18.903,0
1134,18.920,0.536776054918903
1135,18.937,0
1136,18.953,0.343885320584021
1137,18.970,0.716362184348389
1138,18.987,0
1139,19.003,0
1140,19.020,0.58650475821318
1141,19.036,0
1142,19.053,0
1143,19.070,0
1144,19.086,0
1145,19.103,0
1146,19.120,0
1147,19.136,0.563534902602507
1148,19.153,0
1149,19.169,0
1150,19.186,0.342183668759545
1151,19.203,0
1152,19.219,0.420704275728015
1153,19.236,0
1154,19.253,0
1155,19.269,0.428915248708795
1156,19.286,0
1157,19.303,0
1158,19.319,0.801156847938398
1159,19.336,0
1160,19.352,0
1161,19.369,0
1162,19.386,0.446341920138092
1163,19.402,0.35596690852863
1164,19.419,0
1165,19.436,0
1166,19.452,0
1167,19.469,0
1168,19.486,0.613378904677967
1169,19.502,0
1170,19.519,0
1171,19.535,0.329296143808241
1172,19.552,0
1173,19.569,0.53144411264596
1174,19.585,0.862765108398579
1175,19.602,0.469107804492065
1176,19.619,0
1177,19.635,0
1178,19.652,0
1179,19.668,0
1180,19.685,0
1181,19.702,0
1182,19.718,0
1183,19.735,0.404691795186637
1184,19.752,0
1185,19.768,0.926504848840871
1186,19.785,0
1187,19.802,0
1188,19.818,0
1189,19.835,0.464206893964375
1190,19.851,0
1191,19.868,0.874124715713587
1192,19.885,0
1193,19.901,0
1194,19.918,0.958593477252308
1195,19.935,0.370947742540453
1196,19.951,0.494682862346016
1197,19.968,0
1198,19.985,0
1199,20.001,0
1200,20.018,0
1201,20.034,0
1202,20.051,0
1203,20.068,0
1204,20.084,0
1205,20.101,0.335469442952061
1206,20.118,0
1207,20.134,0
1208,20.151,0.412066766033288
1209,20.167,0
1210,20.184,0
1211,20.201,0
1212,20.217,0
1213,20.234,0
1214,20.251,0.561848897417062
1215,20.267,1.26796894414605
1216,20.284,0
1217,20.301,0
1218,20.317,0
1219,20.334,0.351018566823593
1220,20.350,0
1221,20.367,0.397733658663951
1222,20.384,0.323021448548372
1223,20.400,0.449188822425438
1224,20.417,0
1225,20.434,0
1226,20.450,0
1227,20.467,0.428532949980557
1228,20.484,0.543588360835733
1229,20.500,0
1230,20.517,0
1231,20.533,0.89540493081295
1232,20.550,0
1233,20.567,0.339698948093112
1234,20.583,0
1235,20.600,0
1236,20.617,0.386363685757622
1237,20.633,0
1238,20.650,0
1239,20.666,0
1240,20.683,0
1241,20.700,0.964497934223129
1242,20.716,0
1243,20.733,0
1244,20.750,0.541044811754102
1245,20.766,0
1246,20.783,0
1247,20.800,0.559135028406004
1248,20.816,0
1249,20.833,0.635608529340672
1250,20.849,0.417903060644121
1251,20.866,0.431984249756146
1252,20.883,0
1253,20.899,0
1254,20.916,0
1255,20.933,0.740289113182338
1256,20.949,0
1257,20.966,0
1258,20.983,0.537562808212752
1259,20.999,0.342562553229031
1260,21.016,0.526717648633815
1261,21.032,0
1262,21.049,0.671816767974749
1263,21.066,0.810115813779132
1264,21.082,0.530416445324447
1265,21.099,0
1266,21.116,0
1267,21.132,0
1268,21.149,0
1269,21.165,0.651954280837121
1270,21.182,0
1271,21.199,1.02457149765553
1272,21.215,0
1273,21.232,0.615490979880118
1274,21.249,0
1275,21.265,0
1276,21.282,0.351451195164666
1277,21.299,0.768454193337775
1278,21.315,0.763580842510232
1279,21.332,0
1280,21.348,0.769707299989008
1281,21.365,0.440276919316862
1282,21.382,0.738709318463412
1283,21.398,1.25234372406146
1284,21.415,0
1285,21.432,0
1286,21.448,0
1287,21.465,0
1288,21.482,0
1289,21.498,0.396946929933114
1290,21.515,0.356148871326034
1291,21.531,0.73076858774735
1292,21.548,0
1293,21.565,0
1294,21.581,0
1295,21.598,0
1296,21.615,0
1297,21.631,0.558723254062636
1298,21.648,0
1299,21.664,0.567132941815419
1300,21.681,0
1301,21.698,0.377891534263776
1302,21.714,0
1303,21.731,0.531222357768131
1304,21.748,1.08192770412909
1305,21.764,0
