#"+ BPC(1083.03666) Scan unstir_50_Ecoli-r015.d "
#Point,X(Minutes),Y(Counts)
0,0.061,0
1,0.078,0
2,0.094,0
3,0.111,0
4,0.128,0
5,0.144,0
6,0.161,0
7,0.178,1.77020774457294
8,0.194,0
9,0.211,0
10,0.228,1.77845692909292
11,0.244,1.36616889023651
12,0.261,1.55779559226236
13,0.277,1.61868436037229
14,0.294,0
15,0.311,0
16,0.327,1.86578494986308
17,0.344,1.68042610311884
18,0.361,0
19,0.377,0
20,0.394,0
21,0.410,0
22,0.427,0
23,0.444,0
24,0.460,0
25,0.477,0
26,0.494,0
27,0.510,0
28,0.527,0
29,0.544,1.93432902190959
30,0.560,0
31,0.577,0
32,0.593,0
33,0.610,0
34,0.627,0
35,0.643,0
36,0.660,0
37,0.677,0
38,0.693,0
39,0.710,0
40,0.727,0
41,0.743,1.73836416009703
42,0.760,0
43,0.776,0
44,0.793,0
45,0.810,1.97404018237852
46,0.826,0
47,0.843,0
48,0.860,0
49,0.876,0
50,0.893,0
51,0.909,0
52,0.926,0
53,0.943,0
54,0.959,1.72475154360834
55,0.976,0
56,0.993,0
57,1.009,0
58,1.026,0
59,1.043,0
60,1.059,3.86961484114425
61,1.076,0
62,1.092,3.04651726513938
63,1.109,0
64,1.126,0
65,1.142,1.32935884289484
66,1.159,0
67,1.176,0
68,1.192,0
69,1.209,2.34553441775792
70,1.226,0
71,1.242,0
72,1.259,0
73,1.275,0
74,1.292,0
75,1.309,0
76,1.325,0
77,1.342,0
78,1.359,1.59499946256491
79,1.375,0
80,1.392,0
81,1.408,0
82,1.425,0
83,1.442,0
84,1.458,0
85,1.475,0
86,1.492,0
87,1.508,0
88,1.525,0
89,1.542,1.6771058128269
90,1.558,0
91,1.575,1.22620267388024
92,1.591,0
93,1.608,0
94,1.625,0
95,1.641,0
96,1.658,0
97,1.675,0
98,1.691,0
99,1.708,1.61618262222133
100,1.725,0
101,1.741,1.44128849175281
102,1.758,0
103,1.774,0
104,1.791,0
105,1.808,0
106,1.824,0
107,1.841,0
108,1.858,0
109,1.874,0
110,1.891,0
111,1.907,2.23806701623143
112,1.924,1.50972790830854
113,1.941,0
114,1.957,0
115,1.974,0
116,1.991,0
117,2.007,0
118,2.024,0
119,2.041,0
120,2.057,0
121,2.074,0
122,2.091,0
123,2.107,0
124,2.124,0
125,2.140,0
126,2.157,0
127,2.174,0
128,2.190,0
129,2.207,0
130,2.224,0
131,2.240,0
132,2.257,1.81726940333156
133,2.273,0
134,2.290,0
135,2.307,0
136,2.323,0
137,2.340,0
138,2.357,0
139,2.373,0
140,2.390,0
141,2.407,0
142,2.423,0
143,2.440,0
144,2.456,0
145,2.473,0
146,2.490,0
147,2.506,0
148,2.523,0
149,2.540,0
150,2.556,0
151,2.573,1.63001176731163
152,2.590,0
153,2.606,0
154,2.623,1.48190907234854
155,2.639,0
156,2.656,0
157,2.673,1.92718672419838
158,2.689,0
159,2.706,0
160,2.723,1.51169489484039
161,2.739,0
162,2.756,0
163,2.772,0
164,2.789,1.48964737891573
165,2.806,0
166,2.822,0
167,2.839,0
168,2.856,0
169,2.872,0
170,2.889,0
171,2.906,0
172,2.922,0
173,2.939,0
174,2.955,0
175,2.972,0
176,2.989,0
177,3.005,1.57595512431777
178,3.022,1.43194685566418
179,3.039,1.47984659115136
180,3.055,0
181,3.072,0
182,3.089,0
183,3.105,0
184,3.122,1.759387236642
185,3.138,0
186,3.155,0
187,3.172,2.37800019809591
188,3.188,0
189,3.205,0
190,3.222,0
191,3.238,0
192,3.255,0
193,3.271,0
194,3.288,0
195,3.305,0
196,3.321,0
197,3.338,0
198,3.355,0
199,3.371,0
200,3.388,0
201,3.405,0
202,3.421,0
203,3.438,0
204,3.454,0
205,3.471,0
206,3.488,1.95236640962563
207,3.504,1.48044269254093
208,3.521,0
209,3.538,0
210,3.554,0
211,3.571,0
212,3.588,0
213,3.604,0
214,3.621,0
215,3.637,0
216,3.654,0
217,3.671,0
218,3.687,0
219,3.704,0
220,3.721,0
221,3.737,0
222,3.754,0
223,3.770,0
224,3.787,0
225,3.804,0
226,3.820,0
227,3.837,0
228,3.854,0
229,3.870,0
230,3.887,0
231,3.904,0
232,3.920,0
233,3.937,0
234,3.953,1.52685402522599
235,3.970,0
236,3.987,0
237,4.003,1.61285659484678
238,4.020,0
239,4.037,0
240,4.053,1.97592620201874
241,4.070,1.40786221274612
242,4.087,0
243,4.103,2.13861024762877
244,4.120,0
245,4.136,0
246,4.153,2.37917370908979
247,4.170,0
248,4.186,0
249,4.203,0
250,4.220,1.63863275179796
251,4.236,0
252,4.253,0
253,4.269,0
254,4.286,0
255,4.303,0
256,4.319,1.88247689917422
257,4.336,0
258,4.353,0
259,4.369,0
260,4.386,0
261,4.403,0
262,4.419,0
263,4.436,0
264,4.452,0
265,4.469,0
266,4.486,0
267,4.502,0
268,4.519,1.3542395522914
269,4.536,0
270,4.552,0
271,4.569,0
272,4.586,0
273,4.602,0
274,4.619,2.41912582702822
275,4.635,0
276,4.652,0
277,4.669,0
278,4.685,0
279,4.702,0
280,4.719,0
281,4.735,0
282,4.752,0
283,4.768,0
284,4.785,0
285,4.802,2.44448373215064
286,4.818,0
287,4.835,0
288,4.852,0
289,4.868,0
290,4.885,0
291,4.902,0
292,4.918,1.43195435088501
293,4.935,0
294,4.951,0
295,4.968,0
296,4.985,0
297,5.001,0
298,5.018,0
299,5.035,0
300,5.051,0
301,5.068,0
302,5.085,0
303,5.101,0
304,5.118,0
305,5.134,0
306,5.151,0
307,5.168,0
308,5.184,1.7210753691276
309,5.201,1.78605282646443
310,5.218,1.93049646566101
311,5.234,1.64440092569123
312,5.251,0
313,5.267,1.33884973566484
314,5.284,0
315,5.301,1.58659648721763
316,5.317,0
317,5.334,0
318,5.351,0
319,5.367,1.7598834017539
320,5.384,0
321,5.401,0
322,5.417,0
323,5.434,1.88054738874649
324,5.450,0
325,5.467,0
326,5.484,0
327,5.500,0
328,5.517,0
329,5.534,0
330,5.550,2.04436497083933
331,5.567,3.03320186654317
332,5.584,0
333,5.600,0
334,5.617,0
335,5.633,0
336,5.650,0
337,5.667,0
338,5.683,0
339,5.700,0
340,5.717,0
341,5.733,0
342,5.750,0
343,5.766,0
344,5.783,0
345,5.800,0
346,5.816,0
347,5.833,0
348,5.850,0
349,5.866,0
350,5.883,0
351,5.900,0
352,5.916,0
353,5.933,0
354,5.949,1.73573509572563
355,5.966,0
356,5.983,0
357,5.999,0
358,6.016,0
359,6.033,0
360,6.049,0
361,6.066,0
362,6.083,0
363,6.099,0
364,6.116,1.67380347405151
365,6.132,0
366,6.149,0
367,6.166,2.39084293511219
368,6.182,0
369,6.199,0
370,6.216,0
371,6.232,0
372,6.249,0
373,6.265,0
374,6.282,0
375,6.299,0
376,6.315,1.72909099886532
377,6.332,0
378,6.349,0
379,6.365,0
380,6.382,1.65557047032529
381,6.399,0
382,6.415,0
383,6.432,0
384,6.448,0
385,6.465,0
386,6.482,0
387,6.498,0
388,6.515,0
389,6.532,1.55473013947847
390,6.548,1.50700288660386
391,6.565,0
392,6.581,0
393,6.598,0
394,6.615,0
395,6.631,0
396,6.648,0
397,6.665,0
398,6.681,0
399,6.698,0
400,6.715,0
401,6.731,0
402,6.748,0
403,6.764,0
404,6.781,0
405,6.798,1.93906748200851
406,6.814,0
407,6.831,2.25156692680697
408,6.848,0
409,6.864,0
410,6.881,0
411,6.898,0
412,6.914,0
413,6.931,0
414,6.947,2.19878151027848
415,6.964,0
416,6.981,0
417,6.997,0
418,7.014,0
419,7.031,0
420,7.047,0
421,7.064,1.97491055333014
422,7.080,0
423,7.097,1.30697802097744
424,7.114,0
425,7.130,0
426,7.147,1.39601782063703
427,7.164,0
428,7.180,0
429,7.197,0
430,7.214,0
431,7.230,2.58048238574989
432,7.247,2.07411729617145
433,7.263,0
434,7.280,0
435,7.297,0
436,7.313,0
437,7.330,0
438,7.347,0
439,7.363,0
440,7.380,0
441,7.397,0
442,7.413,0
443,7.430,0
444,7.446,0
445,7.463,0
446,7.480,0
447,7.496,0
448,7.513,0
449,7.530,0
450,7.546,1.34384479141004
451,7.563,0
452,7.579,0
453,7.596,0
454,7.613,1.35516821940499
455,7.629,0
456,7.646,0
457,7.663,0
458,7.679,0
459,7.696,0
460,7.713,0
461,7.729,0
462,7.746,1.4796933555256
463,7.762,1.38615114895628
464,7.779,1.77429624873266
465,7.796,0
466,7.812,0
467,7.829,2.01617535278246
468,7.846,0
469,7.862,0
470,7.879,0
471,7.896,1.68961376331299
472,7.912,0
473,7.929,0
474,7.945,0
475,7.962,0
476,7.979,1.72284923805621
477,7.995,1.30802892496399
478,8.012,0
479,8.029,1.26520058543412
480,8.045,0
481,8.062,0
482,8.078,2.13434500431133
483,8.095,0
484,8.112,0
485,8.128,0
486,8.145,0
487,8.162,0
488,8.178,0
489,8.195,0
490,8.212,2.52956337174045
491,8.228,0
492,8.245,1.57057429603405
493,8.261,1.55150848999394
494,8.278,0
495,8.295,1.68998648861526
496,8.311,0
497,8.328,0
498,8.345,1.42711660224355
499,8.361,0
500,8.378,1.59490600363857
501,8.395,0
502,8.411,0
503,8.428,0
504,8.444,0
505,8.461,0
506,8.478,0
507,8.494,0
508,8.511,0
509,8.528,0
510,8.544,0
511,8.561,1.48008893662471
512,8.577,2.5855421224748
513,8.594,2.02584307724378
514,8.611,0
515,8.627,0
516,8.644,0
517,8.661,1.45239539114615
518,8.677,0
519,8.694,3.23851687753468
520,8.711,0
521,8.727,0
522,8.744,0
523,8.760,0
524,8.777,1.33038374494248
525,8.794,1.51668597164119
526,8.810,0
527,8.827,0
528,8.844,0
529,8.860,0
530,8.877,0
531,8.894,0
532,8.910,0
533,8.927,0
534,8.943,0
535,8.960,0
536,8.977,0
537,8.993,0
538,9.010,0
539,9.027,3.02628701639725
540,9.043,0
541,9.060,0
542,9.076,0
543,9.093,0
544,9.110,2.09972652252549
545,9.126,0
546,9.143,0
547,9.160,0
548,9.176,0
549,9.193,0
550,9.210,0
551,9.226,1.54714978775015
552,9.243,0
553,9.259,0
554,9.276,1.50487470655748
555,9.293,0
556,9.309,0
557,9.326,1.6468658354732
558,9.343,0
559,9.359,0
560,9.376,0
561,9.393,0
562,9.409,0
563,9.426,0
564,9.442,0
565,9.459,0
566,9.476,0
567,9.492,0
568,9.509,0
569,9.526,0
570,9.542,1.95460387184231
571,9.559,0
572,9.576,1.58353547604609
573,9.592,0
574,9.609,0
575,9.625,0
576,9.642,0
577,9.659,0
578,9.675,0
579,9.692,1.7950855854282
580,9.709,0
581,9.725,0
582,9.742,0
583,9.758,0
584,9.775,0
585,9.792,0
586,9.808,0
587,9.825,1.6773863746731
588,9.842,0
589,9.858,0
590,9.875,0
591,9.892,0
592,9.908,0
593,9.925,0
594,9.941,0
595,9.958,0
596,9.975,0
597,9.991,0
598,10.008,0
599,10.025,1.66439262283723
600,10.041,0
601,10.058,0
602,10.075,0
603,10.091,0
604,10.108,0
605,10.124,0
606,10.141,0
607,10.158,0
608,10.174,1.95876288659794
609,10.191,0
610,10.208,0
611,10.224,0
612,10.241,1.53699607687187
613,10.257,0
614,10.274,0
615,10.291,0
616,10.307,0
617,10.324,0
618,10.341,1.62323904876061
619,10.357,0
620,10.374,0
621,10.391,0
622,10.407,0
623,10.424,0
624,10.440,0
625,10.457,0
626,10.474,0
627,10.490,0
628,10.507,0
629,10.524,0
630,10.540,0
631,10.557,0
632,10.574,0
633,10.590,1.85579298770088
634,10.607,0
635,10.623,0
636,10.640,0
637,10.657,1.97946246571075
638,10.673,0
639,10.690,0
640,10.707,0
641,10.723,0
642,10.740,0
643,10.756,1.28106158310316
644,10.773,0
645,10.790,3.0119263583635
646,10.806,0
647,10.823,0
648,10.840,0
649,10.856,0
650,10.873,0
651,10.890,0
652,10.906,0
653,10.923,0
654,10.939,0
655,10.956,2.12295708040384
656,10.973,0
657,10.989,0
658,11.006,0
659,11.023,0
660,11.039,0
661,11.056,0
662,11.073,0
663,11.089,0
664,11.106,0
665,11.122,1.38196705759764
666,11.139,0
667,11.156,1.78303660155066
668,11.172,0
669,11.189,2.22092794461132
670,11.206,0
671,11.222,1.65632832043094
672,11.239,0
673,11.255,0
674,11.272,0
675,11.289,0
676,11.305,0
677,11.322,0
678,11.339,0
679,11.355,0
680,11.372,0
681,11.389,2.03363829196909
682,11.405,0
683,11.422,0
684,11.438,0
685,11.455,0
686,11.472,0
687,11.488,0
688,11.505,0
689,11.522,0
690,11.538,0
691,11.555,0
692,11.572,1.66774955643098
693,11.588,1.76179533079944
694,11.605,1.62919599117837
695,11.621,0
696,11.638,0
697,11.655,0
698,11.671,1.54615486658581
699,11.688,0
700,11.705,0
701,11.721,1.95308983723564
702,11.738,0
703,11.754,0
704,11.771,1.60476046088539
705,11.788,0
706,11.804,2.08013956730405
707,11.821,0
708,11.838,0
709,11.854,0
710,11.871,1.55927835051546
711,11.888,1.21447126528507
712,11.904,0
713,11.921,0
714,11.937,2.06390658460146
715,11.954,0
716,11.971,0
717,11.987,1.83059072407757
718,12.004,0
719,12.021,0
720,12.037,1.86610215501109
721,12.054,1.27282646368893
722,12.071,0
723,12.087,3.65701447551073
724,12.104,0
725,12.120,1.2929731545989
726,12.137,0
727,12.154,0
728,12.170,0
729,12.187,0
730,12.204,0
731,12.220,0
732,12.237,0
733,12.253,0
734,12.270,0
735,12.287,0
736,12.303,0
737,12.320,0
738,12.337,2.01052284587724
739,12.353,2.24253472304474
740,12.370,0
741,12.387,1.7836097546098
742,12.403,1.93226459750701
743,12.420,0
744,12.436,0
745,12.453,0
746,12.470,0
747,12.486,0
748,12.503,0
749,12.520,0
750,12.536,0
751,12.553,0
752,12.570,2.14850986126772
753,12.586,0
754,12.603,0
755,12.619,0
756,12.636,0
757,12.653,0
758,12.669,1.98253495104751
759,12.686,0
760,12.703,0
761,12.719,1.38340262371963
762,12.736,0
763,12.752,1.27071965890194
764,12.769,0
765,12.786,0
766,12.802,1.49489227535509
767,12.819,0
768,12.836,2.62255963012621
769,12.852,0
770,12.869,0
771,12.886,0
772,12.902,1.51284129349227
773,12.919,0
774,12.935,1.54983770348507
775,12.952,0
776,12.969,2.60207176786831
777,12.985,0
778,13.002,0
779,13.019,0
780,13.035,0
781,13.052,0
782,13.069,0
783,13.085,0
784,13.102,0
785,13.118,0
786,13.135,2.08223341738838
787,13.152,0
788,13.168,0
789,13.185,0
790,13.202,0
791,13.218,0
792,13.235,0
793,13.251,0
794,13.268,0
795,13.285,0
796,13.301,0
797,13.318,0
798,13.335,1.62326218215822
799,13.351,0
800,13.368,0
801,13.385,0
802,13.401,0
803,13.418,0
804,13.434,0
805,13.451,0
806,13.468,0
807,13.484,0
808,13.501,1.39890894013654
809,13.518,0
810,13.534,0
811,13.551,0
812,13.568,1.47319111265942
813,13.584,0
814,13.601,0
815,13.617,0
816,13.634,0
817,13.651,0
818,13.667,0
819,13.684,0
820,13.701,0
821,13.717,2.07499488474312
822,13.734,0
823,13.750,0
824,13.767,0
825,13.784,0
826,13.800,0
827,13.817,0
828,13.834,0
829,13.850,2.83849823756822
830,13.867,0
831,13.884,0
832,13.900,0
833,13.917,0
834,13.933,0
835,13.950,0
836,13.967,0
837,13.983,0
838,14.000,0
839,14.017,0
840,14.033,0
841,14.050,0
842,14.067,0
843,14.083,1.59393625161082
844,14.100,0
845,14.116,0
846,14.133,0
847,14.150,1.90047838385717
848,14.166,0
849,14.183,0
850,14.200,0
851,14.216,1.67176236811372
852,14.233,0
853,14.249,1.61385688295937
854,14.266,2.06070751331299
855,14.283,0
856,14.299,0
857,14.316,0
858,14.333,0
859,14.349,0
860,14.366,0
861,14.383,0
862,14.399,0
863,14.416,1.23841720035107
864,14.432,0
865,14.449,0
866,14.466,1.64887362931843
867,14.482,0
868,14.499,0
869,14.516,0
870,14.532,0
871,14.549,0
872,14.566,0
873,14.582,2.03689917569597
874,14.599,1.58429351121892
875,14.615,0
876,14.632,0
877,14.649,0
878,14.665,0
879,14.682,2.0563343758291
880,14.699,0
881,14.715,1.27651041099127
882,14.732,0
883,14.748,0
884,14.765,0
885,14.782,0
886,14.798,0
887,14.815,0
888,14.832,0
889,14.848,0
890,14.865,0
891,14.882,0
892,14.898,0
893,14.915,0
894,14.931,0
895,14.948,1.36411344159221
896,14.965,0
897,14.981,0
898,14.998,0
899,15.015,0
900,15.031,0
901,15.048,0
902,15.065,0
903,15.081,1.64151850434923
904,15.098,0
905,15.114,0
906,15.131,0
907,15.148,0
908,15.164,0
909,15.181,0
910,15.198,1.67569152943072
911,15.214,0
912,15.231,0
913,15.247,1.75524580326855
914,15.264,0
915,15.281,0
916,15.297,0
917,15.314,0
918,15.331,0
919,15.347,1.63293878984422
920,15.364,0
921,15.381,0
922,15.397,1.30600540040839
923,15.414,0
924,15.430,0
925,15.447,0
926,15.464,1.69576613667374
927,15.480,0
928,15.497,0
929,15.514,0
930,15.530,0
931,15.547,0
932,15.564,0
933,15.580,0
934,15.597,0
935,15.613,0
936,15.630,0
937,15.647,0
938,15.663,0
939,15.680,0
940,15.697,0
941,15.713,0
942,15.730,0
943,15.746,0
944,15.763,1.40159768867377
945,15.780,0
946,15.796,0
947,15.813,2.34338227151162
948,15.830,0
949,15.846,0
950,15.863,0
951,15.880,1.54821836565248
952,15.896,0
953,15.913,0
954,15.929,0
955,15.946,0
956,15.963,0
957,15.979,0
958,15.996,0
959,16.013,0
960,16.029,0
961,16.046,0
962,16.063,0
963,16.079,0
964,16.096,1.6406984716708
965,16.112,0
966,16.129,1.56804997968703
967,16.146,0
968,16.162,0
969,16.179,0
970,16.196,0
971,16.212,0
972,16.229,0
973,16.245,0
974,16.262,0
975,16.279,1.47441135311647
976,16.295,0
977,16.312,3.02262620249251
978,16.329,1.50092962946293
979,16.345,0
980,16.362,1.60949299883452
981,16.379,0
982,16.395,0
983,16.412,0
984,16.428,1.82018754263948
985,16.445,0
986,16.462,0
987,16.478,0
988,16.495,0
989,16.512,0
990,16.528,0
991,16.545,0
992,16.562,0
993,16.578,0
994,16.595,0
995,16.611,0
996,16.628,1.34732516481343
997,16.645,0
998,16.661,0
999,16.678,0
1000,16.695,0
1001,16.711,0
1002,16.728,0
1003,16.744,0
1004,16.761,1.79104945528066
1005,16.778,2.02524771612293
1006,16.794,0
1007,16.811,0
1008,16.828,0
1009,16.844,1.54841879340936
1010,16.861,1.88040747795776
1011,16.878,0
1012,16.894,0
1013,16.911,1.56837477258945
1014,16.927,0
1015,16.944,0
1016,16.961,0
1017,16.977,0
1018,16.994,0
1019,17.011,0
1020,17.027,0
1021,17.044,0
1022,17.061,0
1023,17.077,0
1024,17.094,0
1025,17.110,1.65091991713728
1026,17.127,0
1027,17.144,1.54241206791995
1028,17.160,1.24563778147978
1029,17.177,0
1030,17.194,0
1031,17.210,0
1032,17.227,0
1033,17.243,0
1034,17.260,0
1035,17.277,0
1036,17.293,0
1037,17.310,0
1038,17.327,0
1039,17.343,0
1040,17.360,0
1041,17.377,1.45700948609953
1042,17.393,0
1043,17.410,0
1044,17.426,0
1045,17.443,0
1046,17.460,0
1047,17.476,0
1048,17.493,0
1049,17.510,0
1050,17.526,0
1051,17.543,0
1052,17.560,0
1053,17.576,0
1054,17.593,0
1055,17.609,0
1056,17.626,0
1057,17.643,0
1058,17.659,0
1059,17.676,2.72747125388493
1060,17.693,0
1061,17.709,0
1062,17.726,0
1063,17.742,0
1064,17.759,0
1065,17.776,0
1066,17.792,0
1067,17.809,0
1068,17.826,0
1069,17.842,0
1070,17.859,0
1071,17.876,1.95121418135755
1072,17.892,2.33625588957796
1073,17.909,0
1074,17.925,0
1075,17.942,1.32901887448359
1076,17.959,0
1077,17.975,0
1078,17.992,0
1079,18.009,0
1080,18.025,0
1081,18.042,0
1082,18.058,0
1083,18.075,0
1084,18.092,1.71092480439139
1085,18.108,0
1086,18.125,0
1087,18.142,0
1088,18.158,0
1089,18.175,0
1090,18.192,0
1091,18.208,0
1092,18.225,1.37446563702196
1093,18.241,0
1094,18.258,0
1095,18.275,0
1096,18.291,0
1097,18.308,3.51311400848999
1098,18.325,0
1099,18.341,0
1100,18.358,0
1101,18.375,0
1102,18.391,0
1103,18.408,0
1104,18.424,0
1105,18.441,0
1106,18.458,0
1107,18.474,0
1108,18.491,0
1109,18.508,1.7741855785585
1110,18.524,0
1111,18.541,0
1112,18.557,0
1113,18.574,0
1114,18.591,0
1115,18.607,1.32913407880368
1116,18.624,0
1117,18.641,0
1118,18.657,1.30012711154251
1119,18.674,0
1120,18.691,1.28785715745101
1121,18.707,0
1122,18.724,1.43107195056663
1123,18.740,0
1124,18.757,0
1125,18.774,0
1126,18.790,3.0747635137536
1127,18.807,1.82325336555772
1128,18.824,2.87624861125587
1129,18.840,0
1130,18.857,0
1131,18.874,0
1132,18.890,1.26446586872607
1133,18.907,1.28356674499697
1134,18.923,1.62151570317238
1135,18.940,0
1136,18.957,0
1137,18.973,0
1138,18.990,0
1139,19.007,0
1140,19.023,0
1141,19.040,0
1142,19.056,0
1143,19.073,0
1144,19.090,0
1145,19.106,1.48094801847829
1146,19.123,0
1147,19.140,0
1148,19.156,0
1149,19.173,0
1150,19.190,1.7492259380093
1151,19.206,0
1152,19.223,0
1153,19.239,0
1154,19.256,0
1155,19.273,0
1156,19.289,0
1157,19.306,0
1158,19.323,0
1159,19.339,0
1160,19.356,0
1161,19.373,0
1162,19.389,2.05605862572961
1163,19.406,0
1164,19.422,0
1165,19.439,0
1166,19.456,0
1167,19.472,0
1168,19.489,0
1169,19.506,1.56545496767691
1170,19.522,0
1171,19.539,0
1172,19.555,0
1173,19.572,0
1174,19.589,1.4180575637401
1175,19.605,0
1176,19.622,0
1177,19.639,0
1178,19.655,0
1179,19.672,0
1180,19.689,0
1181,19.705,0
1182,19.722,0
1183,19.738,0
1184,19.755,0
1185,19.772,0
1186,19.788,0
1187,19.805,1.52166622201192
1188,19.822,1.30780952782108
1189,19.838,1.60358694989151
1190,19.855,1.39105903805929
1191,19.872,0
1192,19.888,0
1193,19.905,1.64342025469982
1194,19.921,2.23831167504453
1195,19.938,0
1196,19.955,1.82549119790877
1197,19.971,0
1198,19.988,0
1199,20.005,0
1200,20.021,0
1201,20.038,2.48942544635243
1202,20.054,1.57983246682412
1203,20.071,0
1204,20.088,0
1205,20.104,1.55742249682573
1206,20.121,0
1207,20.138,1.51854663707763
1208,20.154,0
1209,20.171,0
1210,20.188,0
1211,20.204,0
1212,20.221,0
1213,20.237,1.57481807155852
1214,20.254,0
1215,20.271,0
1216,20.287,1.74594543716125
1217,20.304,0
1218,20.321,0
1219,20.337,0
1220,20.354,0
1221,20.371,0
1222,20.387,1.69772988452992
1223,20.404,0
1224,20.420,0
1225,20.437,3.23491732086681
1226,20.454,0
1227,20.470,0
1228,20.487,1.72835054507467
1229,20.504,0
1230,20.520,0
1231,20.537,0
1232,20.553,0
1233,20.570,0
1234,20.587,0
1235,20.603,0
1236,20.620,0
1237,20.637,0
1238,20.653,0
1239,20.670,0
1240,20.687,0
1241,20.703,0
1242,20.720,2.02253352084834
1243,20.736,0
1244,20.753,0
1245,20.770,0
1246,20.786,0
1247,20.803,0
1248,20.820,1.3337893512048
1249,20.836,1.48266433151365
1250,20.853,0
1251,20.870,0
1252,20.886,0
1253,20.903,1.45755006733484
1254,20.919,0
1255,20.936,0
1256,20.953,0
1257,20.969,0
1258,20.986,0
1259,21.003,0
1260,21.019,0
1261,21.036,0
1262,21.052,0
1263,21.069,0
1264,21.086,0
1265,21.102,0
1266,21.119,0
1267,21.136,1.40714396701718
1268,21.152,0
1269,21.169,1.4027232672678
1270,21.186,0
1271,21.202,0
1272,21.219,0
1273,21.235,0
1274,21.252,0
1275,21.269,0
1276,21.285,0
1277,21.302,0
1278,21.319,0
1279,21.335,1.52091947593712
1280,21.352,0
1281,21.369,0
1282,21.385,0
1283,21.402,2.96468888578305
1284,21.418,2.69221262472047
1285,21.435,0
1286,21.452,0
1287,21.468,0
1288,21.485,0
1289,21.502,0
