#"+ BPC Scan stir_50nm_sp-r020.d "
#Point,X(Minutes),Y(Counts)
0,0.054,1349
1,0.071,1109
2,0.087,969
3,0.104,1346
4,0.121,1365
5,0.137,892
6,0.154,1442
7,0.170,1468
8,0.187,1388
9,0.204,1523
10,0.220,1336
11,0.237,912
12,0.254,1285
13,0.270,1123
14,0.287,1345
15,0.304,1107
16,0.320,1125
17,0.337,1420
18,0.353,1153
19,0.370,1456
20,0.387,1741
21,0.403,979
22,0.420,1345
23,0.437,1285
24,0.453,1311
25,0.470,1155
26,0.486,1361
27,0.503,1514
28,0.520,1128
29,0.536,1249
30,0.553,1311
31,0.570,1376
32,0.586,1216
33,0.603,1426
34,0.620,1314
35,0.636,1287
36,0.653,1498
37,0.669,977
38,0.686,1552
39,0.703,1557
40,0.719,1436
41,0.736,1450
42,0.753,1582
43,0.769,1190
44,0.786,1017
45,0.803,1067
46,0.819,1584
47,0.836,865
48,0.852,1434
49,0.869,1354
50,0.886,1472
51,0.902,889
52,0.919,936
53,0.936,1017
54,0.952,1416
55,0.969,1160
56,0.985,1279
57,1.002,1055
58,1.019,1055
59,1.035,885
60,1.052,1595
61,1.069,1429
62,1.085,1263
63,1.102,1000
64,1.119,1453
65,1.135,946
66,1.152,1189
67,1.168,1459
68,1.185,1496
69,1.202,1430
70,1.218,1139
71,1.235,1101
72,1.252,1576
73,1.268,858
74,1.285,1348
75,1.302,1207
76,1.318,1254
77,1.335,1017
78,1.351,1080
79,1.368,936
80,1.385,1305
81,1.401,1107
82,1.418,1903
83,1.435,1113
84,1.451,1654
85,1.468,1087
86,1.484,1178
87,1.501,1622
88,1.518,1131
89,1.534,1338
90,1.551,1679
91,1.568,1195
92,1.584,1001
93,1.601,802
94,1.618,1899
95,1.634,1126
96,1.651,1266
97,1.667,971
98,1.684,1520
99,1.701,1216
100,1.717,1101
101,1.734,1522
102,1.751,1243
103,1.767,1231
104,1.784,1156
105,1.801,1257
106,1.817,1672
107,1.834,1232
108,1.850,1154
109,1.867,1460
110,1.884,1354
111,1.900,1106
112,1.917,1553
113,1.934,1054
114,1.950,1220
115,1.967,1246
116,1.983,1513
117,2.000,1236
118,2.017,1148
119,2.033,1327
120,2.050,1035
121,2.067,1195
122,2.083,1017
123,2.100,1595
124,2.117,1177
125,2.133,962
126,2.150,1182
127,2.166,1183
128,2.183,1291
129,2.200,1624
130,2.216,1366
131,2.233,1263
132,2.250,1319
133,2.266,1107
134,2.283,1368
135,2.300,1259
136,2.316,1199
137,2.333,1817
138,2.349,1400
139,2.366,2131
140,2.383,1372
141,2.399,1083
142,2.416,1484
143,2.433,1659
144,2.449,1555
145,2.466,1515
146,2.482,1094
147,2.499,1086
148,2.516,1614
149,2.532,1573
150,2.549,1054
151,2.566,1131
152,2.582,1843
153,2.599,1073
154,2.616,1402
155,2.632,1522
156,2.649,1700
157,2.665,1001
158,2.682,1567
159,2.699,1142
160,2.715,1216
161,2.732,1330
162,2.749,1159
163,2.765,1238
164,2.782,1494
165,2.799,1515
166,2.815,1001
167,2.832,1249
168,2.848,1565
169,2.865,1570
170,2.882,1386
171,2.898,1696
172,2.915,1767
173,2.932,2013
174,2.948,1646
175,2.965,1154
176,2.981,1445
177,2.998,1668
178,3.015,1287
179,3.031,1091
180,3.048,1491
181,3.065,1405
182,3.081,1412
183,3.098,1092
184,3.115,1454
185,3.131,1077
186,3.148,1239
187,3.164,1162
188,3.181,999
189,3.198,1868
190,3.214,1227
191,3.231,1535
192,3.248,1582
193,3.264,1310
194,3.281,1232
195,3.298,997
196,3.314,1150
197,3.331,1878
198,3.347,1041
199,3.364,1044
200,3.381,1160
201,3.397,1512
202,3.414,1703
203,3.431,1169
204,3.447,1234
205,3.464,1076
206,3.480,1139
207,3.497,1365
208,3.514,1344
209,3.530,1730
210,3.547,1173
211,3.564,1319
212,3.580,1178
213,3.597,1193
214,3.614,1438
215,3.630,1318
216,3.647,1090
217,3.663,1217
218,3.680,1848
219,3.697,1445
220,3.713,1465
221,3.730,1349
222,3.747,1743
223,3.763,1113
224,3.780,1098
225,3.797,1199
226,3.813,1167
227,3.830,1030
228,3.846,1436
229,3.863,1191
230,3.880,1065
231,3.896,1081
232,3.913,1109
233,3.930,1237
234,3.946,1262
235,3.963,1423
236,3.979,1365
237,3.996,1518
238,4.013,1133
239,4.029,1815
240,4.046,1094
241,4.063,1328
242,4.079,1764
243,4.096,1163
244,4.113,1117
245,4.129,1506
246,4.146,1720
247,4.163,1676
248,4.179,1199
249,4.196,1280
250,4.212,1542
251,4.229,1372
252,4.246,1589
253,4.262,1392
254,4.279,1153
255,4.296,1073
256,4.312,1610
257,4.329,1354
258,4.345,1386
259,4.362,1407
260,4.379,1302
261,4.395,1582
262,4.412,1354
263,4.429,1401
264,4.445,1245
265,4.462,1266
266,4.479,1583
267,4.495,1630
268,4.512,1897
269,4.528,1184
270,4.545,1208
271,4.562,1229
272,4.578,2233
273,4.595,1154
274,4.612,1095
275,4.628,1570
276,4.645,1102
277,4.662,1144
278,4.678,1370
279,4.695,1809
280,4.711,971
281,4.728,1385
282,4.745,1310
283,4.761,1429
284,4.778,1218
285,4.795,1223
286,4.811,1843
287,4.828,1111
288,4.844,1317
289,4.861,1481
290,4.878,1239
291,4.894,1321
292,4.911,1379
293,4.928,1415
294,4.944,1152
295,4.961,1026
296,4.978,1571
297,4.994,1265
298,5.011,1221
299,5.027,1311
300,5.044,1344
301,5.061,1344
302,5.077,1220
303,5.094,1634
304,5.111,1017
305,5.127,1615
306,5.144,1407
307,5.160,1215
308,5.177,1195
309,5.194,1931
310,5.210,1330
311,5.227,1174
312,5.244,1175
313,5.260,1467
314,5.277,1190
315,5.294,1240
316,5.310,1142
317,5.327,1688
318,5.343,1638
319,5.360,1526
320,5.377,1410
321,5.393,1419
322,5.410,1371
323,5.427,1537
324,5.443,1783
325,5.460,1409
326,5.477,1092
327,5.493,1139
328,5.510,1414
329,5.526,1481
330,5.543,920
331,5.560,1856
332,5.576,1065
333,5.593,1849
334,5.610,1068
335,5.626,1185
336,5.643,1112
337,5.659,1452
338,5.676,1247
339,5.693,1176
340,5.709,1140
341,5.726,1369
342,5.743,1079
343,5.759,1742
344,5.776,1471
345,5.793,1607
346,5.809,1037
347,5.826,1073
348,5.842,1054
349,5.859,1517
350,5.876,1129
351,5.892,1182
352,5.909,1411
353,5.926,1353
354,5.942,1229
355,5.959,1439
356,5.976,1832
357,5.992,1080
358,6.009,1413
359,6.025,1352
360,6.042,1715
361,6.059,1431
362,6.075,1193
363,6.092,1472
364,6.109,1426
365,6.125,2133
366,6.142,1201
367,6.158,1141
368,6.175,1595
369,6.192,1162
370,6.208,1276
371,6.225,1079
372,6.242,1125
373,6.258,1534
374,6.275,1717
375,6.292,1319
376,6.308,1631
377,6.325,1352
378,6.341,1561
379,6.358,1296
380,6.375,1402
381,6.391,1171
382,6.408,1536
383,6.425,1086
384,6.441,1216
385,6.458,1220
386,6.475,1257
387,6.491,1214
388,6.508,1201
389,6.524,1857
390,6.541,886
391,6.558,1194
392,6.574,1258
393,6.591,1490
394,6.608,1231
395,6.624,1641
396,6.641,1301
397,6.657,1401
398,6.674,1222
399,6.691,1090
400,6.707,1311
401,6.724,1163
402,6.741,1796
403,6.757,1107
404,6.774,1355
405,6.791,1675
406,6.807,1229
407,6.824,1535
408,6.840,1042
409,6.857,1514
410,6.874,1110
411,6.890,1849
412,6.907,1119
413,6.924,1781
414,6.940,1050
415,6.957,1478
416,6.974,1204
417,6.990,1546
418,7.007,1327
419,7.023,1259
420,7.040,1192
421,7.057,1940
422,7.073,1078
423,7.090,1445
424,7.107,1887
425,7.123,1249
426,7.140,1514
427,7.156,1112
428,7.173,1161
429,7.190,1632
430,7.206,1415
431,7.223,1575
432,7.240,1380
433,7.256,963
434,7.273,1509
435,7.290,1112
436,7.306,1832
437,7.323,1297
438,7.339,1323
439,7.356,1397
440,7.373,1175
441,7.389,1259
442,7.406,1939
443,7.423,1249
444,7.439,965
445,7.456,2095
446,7.473,1362
447,7.489,1789
448,7.506,1060
449,7.522,1099
450,7.539,1308
451,7.556,1208
452,7.572,1251
453,7.589,1729
454,7.606,923
455,7.622,1308
456,7.639,1185
457,7.655,1038
458,7.672,1079
459,7.689,1152
460,7.705,1051
461,7.722,1415
462,7.739,1397
463,7.755,1363
464,7.772,1061
465,7.789,1151
466,7.805,1206
467,7.822,1800
468,7.838,1303
469,7.855,1210
470,7.872,1229
471,7.888,1165
472,7.905,1619
473,7.922,1940
474,7.938,1489
475,7.955,1131
476,7.972,759
477,7.988,1225
478,8.005,1186
479,8.021,1282
480,8.038,1038
481,8.055,1721
482,8.071,1006
483,8.088,1549
484,8.105,951
485,8.121,1415
486,8.138,1537
487,8.154,1868
488,8.171,1186
489,8.188,1449
490,8.204,1027
491,8.221,1644
492,8.238,1025
493,8.254,1648
494,8.271,1282
495,8.288,1438
496,8.304,1425
497,8.321,1360
498,8.337,1212
499,8.354,1384
500,8.371,1064
501,8.387,1109
502,8.404,776
503,8.421,1216
504,8.437,778
505,8.454,1118
506,8.471,767
507,8.487,808
508,8.504,906
509,8.520,719
510,8.537,838
511,8.554,761
512,8.570,765
513,8.587,1002
514,8.604,632
515,8.620,720
516,8.637,863
517,8.653,769
518,8.670,733
519,8.687,1101
520,8.703,1105
521,8.720,1089
522,8.737,1027
523,8.753,1184
524,8.770,1517
525,8.787,1304
526,8.803,1569
527,8.820,1488
528,8.836,1480
529,8.853,1429
530,8.870,1410
531,8.886,1227
532,8.903,1746
533,8.920,2632
534,8.936,1655
535,8.953,2350
536,8.970,1557
537,8.986,1882
538,9.003,1683
539,9.019,1565
540,9.036,2247
541,9.053,1758
542,9.069,1775
543,9.086,1425
544,9.103,1479
545,9.119,1785
546,9.136,1993
547,9.152,1628
548,9.169,1672
549,9.186,1302
550,9.202,1837
551,9.219,1782
552,9.236,1890
553,9.252,2087
554,9.269,1603
555,9.286,1702
556,9.302,1694
557,9.319,1092
558,9.335,1465
559,9.352,1607
560,9.369,929
561,9.385,1498
562,9.402,1326
563,9.419,1347
564,9.435,1595
565,9.452,1551
566,9.469,1358
567,9.485,1412
568,9.502,1522
569,9.518,1470
570,9.535,1490
571,9.552,1294
572,9.568,1355
573,9.585,1542
574,9.602,1252
575,9.618,1465
576,9.635,1296
577,9.651,1058
578,9.668,1150
579,9.685,1542
580,9.701,1632
581,9.718,1195
582,9.735,1603
583,9.751,1618
584,9.768,1126
585,9.785,1544
586,9.801,1207
587,9.818,988
588,9.834,1388
589,9.851,1433
590,9.868,1598
591,9.884,1389
592,9.901,1424
593,9.918,1111
594,9.934,1986
595,9.951,1186
596,9.968,1466
597,9.984,1449
598,10.001,1388
599,10.017,1445
600,10.034,1024
601,10.051,1180
602,10.067,994
603,10.084,1253
604,10.101,1831
605,10.117,1349
606,10.134,1812
607,10.150,1603
608,10.167,1698
609,10.184,1247
610,10.200,1232
611,10.217,1485
612,10.234,1436
613,10.250,1128
614,10.267,1348
615,10.284,1067
616,10.300,1679
617,10.317,1081
618,10.333,1508
619,10.350,1070
620,10.367,1885
621,10.383,1085
622,10.400,1165
623,10.417,1218
624,10.433,1560
625,10.450,1391
626,10.467,1441
627,10.483,1333
628,10.500,852
629,10.516,1307
630,10.533,1072
631,10.550,1577
632,10.566,1197
633,10.583,1392
634,10.600,1475
635,10.616,1632
636,10.633,1703
637,10.649,1914
638,10.666,1917
639,10.683,1567
640,10.699,1427
641,10.716,1328
642,10.733,1398
643,10.749,1068
644,10.766,1122
645,10.783,1535
646,10.799,1434
647,10.816,1564
648,10.832,1298
649,10.849,1075
650,10.866,1243
651,10.882,1618
652,10.899,1809
653,10.916,1162
654,10.932,1955
655,10.949,1309
656,10.966,1048
657,10.982,1315
658,10.999,1235
659,11.015,1485
660,11.032,1504
661,11.049,1348
662,11.065,893
663,11.082,1190
664,11.099,1313
665,11.115,1513
666,11.132,1603
667,11.148,1510
668,11.165,1240
669,11.182,1310
670,11.198,1434
671,11.215,1083
672,11.232,1611
673,11.248,1599
674,11.265,1209
675,11.282,1437
676,11.298,1421
677,11.315,1202
678,11.331,1481
679,11.348,1637
680,11.365,1199
681,11.381,1142
682,11.398,1034
683,11.415,1101
684,11.431,1535
685,11.448,1304
686,11.465,1236
687,11.481,1364
688,11.498,1033
689,11.514,1567
690,11.531,1338
691,11.548,1202
692,11.564,1653
693,11.581,1125
694,11.598,1289
695,11.614,1145
696,11.631,927
697,11.647,1021
698,11.664,1473
699,11.681,1369
700,11.697,1099
701,11.714,1501
702,11.731,1422
703,11.747,1004
704,11.764,1374
705,11.781,1565
706,11.797,1045
707,11.814,935
708,11.831,770
709,11.847,888
710,11.864,788
711,11.880,1205
712,11.897,1184
713,11.914,1026
714,11.930,1352
715,11.947,1172
716,11.964,920
717,11.980,852
718,11.997,1300
719,12.013,1543
720,12.030,1238
721,12.047,1201
722,12.063,1179
723,12.080,1523
724,12.097,1698
725,12.113,1622
726,12.130,1568
727,12.147,1271
728,12.163,1592
729,12.180,1381
730,12.196,1332
731,12.213,1554
732,12.230,1476
733,12.246,1235
734,12.263,997
735,12.280,1184
736,12.296,1190
737,12.313,1296
738,12.329,1232
739,12.346,1362
740,12.363,1063
741,12.379,1187
742,12.396,1306
743,12.413,1250
744,12.429,1164
745,12.446,1227
746,12.463,1161
747,12.479,1524
748,12.496,1916
749,12.512,1745
750,12.529,1290
751,12.546,1364
752,12.562,1377
753,12.579,1191
754,12.596,1311
755,12.612,1322
756,12.629,1342
757,12.646,1431
758,12.662,1361
759,12.679,1356
760,12.695,1649
761,12.712,1524
762,12.729,1511
763,12.745,1459
764,12.762,1204
765,12.779,1419
766,12.795,1427
767,12.812,1056
768,12.828,1337
769,12.845,1361
770,12.862,1476
771,12.878,1330
772,12.895,1418
773,12.912,1063
774,12.928,1601
775,12.945,1175
776,12.962,1412
777,12.978,1752
778,12.995,1290
779,13.011,1587
780,13.028,1091
781,13.045,1974
782,13.061,1096
783,13.078,1285
784,13.095,1524
785,13.111,1235
786,13.128,1149
787,13.145,1514
788,13.161,1297
789,13.178,1287
790,13.194,1554
791,13.211,1455
792,13.228,1197
793,13.244,1690
794,13.261,1596
795,13.278,1158
796,13.294,1405
797,13.311,1400
798,13.327,949
799,13.344,1809
800,13.361,1250
801,13.377,1312
802,13.394,1368
803,13.411,1092
804,13.427,1583
805,13.444,1353
806,13.461,1189
807,13.477,1574
808,13.494,1338
809,13.510,1712
810,13.527,2511
811,13.544,1462
812,13.560,1533
813,13.577,1289
814,13.594,1454
815,13.610,1068
816,13.627,1513
817,13.644,1441
818,13.660,1086
819,13.677,1214
820,13.693,995
821,13.710,1182
822,13.727,1350
823,13.743,1402
824,13.760,1651
825,13.777,1181
826,13.793,1767
827,13.810,1615
828,13.826,1340
829,13.843,1230
830,13.860,1195
831,13.876,1230
832,13.893,1432
833,13.910,1198
834,13.926,1417
835,13.943,1603
836,13.960,1259
837,13.976,1899
838,13.993,1707
839,14.009,1403
840,14.026,1326
841,14.043,1310
842,14.059,1138
843,14.076,1603
844,14.093,1405
845,14.109,1384
846,14.126,1515
847,14.143,1261
848,14.159,1404
849,14.176,1728
850,14.192,1499
851,14.209,1447
852,14.226,1640
853,14.242,1431
854,14.259,1601
855,14.276,1503
856,14.292,1144
857,14.309,1444
858,14.325,1584
859,14.342,1531
860,14.359,1388
861,14.375,1885
862,14.392,1129
863,14.409,1606
864,14.425,1732
865,14.442,1479
866,14.459,1700
867,14.475,1620
868,14.492,1887
869,14.508,1298
870,14.525,2073
871,14.542,1596
872,14.558,1069
873,14.575,1261
874,14.592,1595
875,14.608,1567
876,14.625,850
877,14.642,1211
878,14.658,1648
879,14.675,1342
880,14.691,1270
881,14.708,1596
882,14.725,1045
883,14.741,1716
884,14.758,1304
885,14.775,1114
886,14.791,1026
887,14.808,1697
888,14.824,1282
889,14.841,1383
890,14.858,1805
891,14.874,1761
892,14.891,1052
893,14.908,1040
894,14.924,1190
895,14.941,1272
896,14.958,1625
897,14.974,1469
898,14.991,1258
899,15.007,1237
900,15.024,1135
901,15.041,1325
902,15.057,1593
903,15.074,1719
904,15.091,1539
905,15.107,1555
906,15.124,2392
907,15.141,1638
908,15.157,2553
909,15.174,1638
910,15.190,1710
911,15.207,1603
912,15.224,1213
913,15.240,1118
914,15.257,1153
915,15.274,1741
916,15.290,1233
917,15.307,1503
918,15.323,1480
919,15.340,1519
920,15.357,1387
921,15.373,1198
922,15.390,1452
923,15.407,1858
924,15.423,1728
925,15.440,1817
926,15.457,1492
927,15.473,1437
928,15.490,1390
929,15.506,1135
930,15.523,2040
931,15.540,1206
932,15.556,1851
933,15.573,1262
934,15.590,1487
935,15.606,1791
936,15.623,1936
937,15.640,2925
938,15.656,3107
939,15.673,4517
940,15.689,4525
941,15.706,5214
942,15.723,5028
943,15.739,5516
944,15.756,5374
945,15.773,5688
946,15.789,6097
947,15.806,6013
948,15.822,6006
949,15.839,6421
950,15.856,6110
951,15.872,6390
952,15.889,6526
953,15.906,6557
954,15.922,6306
955,15.939,6485
956,15.956,5521
957,15.972,5294
958,15.989,6408
959,16.005,5405
960,16.022,6126
961,16.039,5874
962,16.055,6217
963,16.072,5699
964,16.089,5543
965,16.105,6043
966,16.122,5540
967,16.139,5821
968,16.155,5932
969,16.172,5053
970,16.188,4813
971,16.205,4681
972,16.222,4681
973,16.238,4582
974,16.255,5723
975,16.272,10747
976,16.288,24348
977,16.305,39827
978,16.321,60214
979,16.338,77557
980,16.355,101583
981,16.371,124665
982,16.388,134244
983,16.405,153716
984,16.421,171964
985,16.438,183423
986,16.455,203498
987,16.471,220178
988,16.488,216991
989,16.504,216618
990,16.521,229667
991,16.538,243832
992,16.554,247742
993,16.571,233880
994,16.588,250057
995,16.604,237329
996,16.621,239955
997,16.638,224604
998,16.654,232626
999,16.671,209833
1000,16.687,198203
1001,16.704,179474
1002,16.721,165730
1003,16.737,149044
1004,16.754,129793
1005,16.771,114008
1006,16.787,95875
1007,16.804,77560
1008,16.820,62585
1009,16.837,53648
1010,16.854,44262
1011,16.870,35158
1012,16.887,30265
1013,16.904,21669
1014,16.920,21019
1015,16.937,18267
1016,16.954,16945
1017,16.970,16143
1018,16.987,15820
1019,17.003,12762
1020,17.020,11645
1021,17.037,9328
1022,17.053,10756
1023,17.070,9216
1024,17.087,8246
1025,17.103,7384
1026,17.120,8360
1027,17.136,7505
1028,17.153,6683
1029,17.170,6458
1030,17.186,6707
1031,17.203,6672
1032,17.220,6185
1033,17.236,7214
1034,17.253,7802
1035,17.270,5379
1036,17.286,7344
1037,17.303,7747
1038,17.319,7924
1039,17.336,6706
1040,17.353,7402
1041,17.369,6625
1042,17.386,7588
1043,17.403,8672
1044,17.419,8051
1045,17.436,7569
1046,17.453,7758
1047,17.469,7775
1048,17.486,8221
1049,17.502,9657
1050,17.519,8002
1051,17.536,8087
1052,17.552,7837
1053,17.569,6046
1054,17.586,7995
1055,17.602,9078
1056,17.619,16191
1057,17.636,24553
1058,17.652,35450
1059,17.669,44748
1060,17.685,56369
1061,17.702,62041
1062,17.719,65982
1063,17.735,78716
1064,17.752,79950
1065,17.769,87888
1066,17.785,86091
1067,17.802,92093
1068,17.818,85876
1069,17.835,92456
1070,17.852,87818
1071,17.868,86223
1072,17.885,85953
1073,17.902,87384
1074,17.918,83050
1075,17.935,88598
1076,17.952,84883
1077,17.968,77661
1078,17.985,74842
1079,18.001,75577
1080,18.018,73937
1081,18.035,70246
1082,18.051,69783
1083,18.068,65760
1084,18.085,56970
1085,18.101,58213
1086,18.118,56167
1087,18.135,50015
1088,18.151,48157
1089,18.168,36360
1090,18.184,38099
1091,18.201,33398
1092,18.218,29179
1093,18.234,23110
1094,18.251,18795
1095,18.268,18068
1096,18.284,14735
1097,18.301,13379
1098,18.317,11128
1099,18.334,8418
1100,18.351,7965
1101,18.367,6443
1102,18.384,6267
1103,18.401,5620
1104,18.417,5227
1105,18.434,4461
1106,18.451,4186
1107,18.467,4139
1108,18.484,3328
1109,18.500,3455
1110,18.517,2751
1111,18.534,2493
1112,18.550,2500
1113,18.567,1726
1114,18.584,2231
1115,18.600,2109
1116,18.617,1914
1117,18.634,2004
1118,18.650,1828
1119,18.667,2026
1120,18.683,1524
1121,18.700,1472
1122,18.717,1820
1123,18.733,1360
1124,18.750,1364
1125,18.767,1682
1126,18.783,1421
1127,18.800,1358
1128,18.816,1269
1129,18.833,1154
1130,18.850,1237
1131,18.866,1795
1132,18.883,1123
1133,18.900,1297
1134,18.916,1301
1135,18.933,1299
1136,18.950,1388
1137,18.966,1408
1138,18.983,1406
1139,18.999,1424
1140,19.016,1422
1141,19.033,1151
1142,19.049,1326
1143,19.066,1409
1144,19.083,1156
1145,19.099,1542
1146,19.116,1324
1147,19.133,1639
1148,19.149,1580
1149,19.166,1890
1150,19.182,1422
1151,19.199,1823
1152,19.216,2002
1153,19.232,1690
1154,19.249,2204
1155,19.266,3038
1156,19.282,3713
1157,19.299,5228
1158,19.315,6581
1159,19.332,8071
1160,19.349,11791
1161,19.365,13686
1162,19.382,22990
1163,19.399,21223
1164,19.415,27511
1165,19.432,32997
1166,19.449,33336
1167,19.465,35770
1168,19.482,33994
1169,19.499,34440
1170,19.515,37384
1171,19.532,39709
1172,19.548,36052
1173,19.565,36461
1174,19.582,37128
1175,19.598,36394
1176,19.615,39467
1177,19.632,34835
1178,19.648,36742
1179,19.665,30450
1180,19.681,25910
1181,19.698,23590
1182,19.715,28787
1183,19.731,36369
1184,19.748,28252
1185,19.765,28962
1186,19.781,28501
1187,19.798,28971
1188,19.815,25962
1189,19.831,24068
1190,19.848,24886
1191,19.864,21300
1192,19.881,19664
1193,19.898,18379
1194,19.914,19598
1195,19.931,17788
1196,19.948,17947
1197,19.964,14309
1198,19.981,14738
1199,19.997,13456
1200,20.014,14525
1201,20.031,13242
1202,20.047,10418
1203,20.064,9453
1204,20.081,10688
1205,20.097,10857
1206,20.114,8374
1207,20.131,8675
1208,20.147,7619
1209,20.164,8610
1210,20.180,6916
1211,20.197,6687
1212,20.214,7581
1213,20.230,6032
1214,20.247,6390
1215,20.264,5569
1216,20.280,5627
1217,20.297,6804
1218,20.314,5498
1219,20.330,6038
1220,20.347,5034
1221,20.363,4940
1222,20.380,4535
1223,20.397,5110
1224,20.413,4254
1225,20.430,4252
1226,20.447,4520
1227,20.463,4065
1228,20.480,4525
1229,20.496,4259
1230,20.513,4399
1231,20.530,4184
1232,20.546,3478
1233,20.563,3997
1234,20.580,3308
1235,20.596,3804
1236,20.613,3242
1237,20.630,2965
1238,20.646,3262
1239,20.663,3649
1240,20.679,3606
1241,20.696,3026
1242,20.713,3572
1243,20.729,3003
1244,20.746,2789
1245,20.763,2232
1246,20.779,2714
1247,20.796,3132
1248,20.813,3232
1249,20.829,2820
1250,20.846,2644
1251,20.862,3322
1252,20.879,2712
1253,20.896,2170
1254,20.912,2048
1255,20.929,2766
1256,20.946,2321
1257,20.962,2142
1258,20.979,2280
1259,20.995,2186
1260,21.012,2405
1261,21.029,1889
1262,21.045,1924
1263,21.062,2223
1264,21.079,1744
1265,21.095,1641
1266,21.112,1974
