#"+ BPC Scan stir_50nm_sp-r012.d "
#Point,X(Minutes),Y(Counts)
0,0.050,1254
1,0.067,1007
2,0.084,942
3,0.100,1347
4,0.117,919
5,0.134,1213
6,0.150,1331
7,0.167,994
8,0.184,1135
9,0.200,944
10,0.217,1134
11,0.233,1000
12,0.250,1191
13,0.267,1334
14,0.283,2269
15,0.300,1254
16,0.317,1831
17,0.333,1111
18,0.350,968
19,0.366,1035
20,0.383,1009
21,0.400,730
22,0.416,1766
23,0.433,895
24,0.450,1308
25,0.466,1099
26,0.483,1026
27,0.500,1076
28,0.516,883
29,0.533,1167
30,0.549,1297
31,0.566,1201
32,0.583,948
33,0.599,1427
34,0.616,854
35,0.633,1082
36,0.649,1034
37,0.666,774
38,0.683,904
39,0.699,901
40,0.716,751
41,0.732,945
42,0.749,1358
43,0.766,864
44,0.782,1183
45,0.799,1240
46,0.816,891
47,0.832,935
48,0.849,583
49,0.865,685
50,0.882,764
51,0.899,761
52,0.915,792
53,0.932,857
54,0.949,866
55,0.965,1107
56,0.982,626
57,0.999,979
58,1.015,1356
59,1.032,944
60,1.048,1034
61,1.065,965
62,1.082,802
63,1.098,786
64,1.115,1021
65,1.132,1217
66,1.148,884
67,1.165,1008
68,1.181,925
69,1.198,917
70,1.215,910
71,1.231,1009
72,1.248,690
73,1.265,838
74,1.281,781
75,1.298,696
76,1.315,929
77,1.331,786
78,1.348,867
79,1.364,930
80,1.381,868
81,1.398,863
82,1.414,1119
83,1.431,827
84,1.448,681
85,1.464,775
86,1.481,779
87,1.498,731
88,1.514,682
89,1.531,658
90,1.547,1007
91,1.564,1326
92,1.581,811
93,1.597,817
94,1.614,686
95,1.631,713
96,1.647,840
97,1.664,638
98,1.680,877
99,1.697,771
100,1.714,685
101,1.730,643
102,1.747,614
103,1.764,608
104,1.780,1257
105,1.797,843
106,1.814,712
107,1.830,815
108,1.847,627
109,1.863,790
110,1.880,750
111,1.897,964
112,1.913,716
113,1.930,687
114,1.947,635
115,1.963,659
116,1.980,655
117,1.997,599
118,2.013,696
119,2.030,630
120,2.046,670
121,2.063,961
122,2.080,830
123,2.096,789
124,2.113,605
125,2.130,747
126,2.146,803
127,2.163,635
128,2.179,690
129,2.196,714
130,2.213,571
131,2.229,525
132,2.246,669
133,2.263,904
134,2.279,541
135,2.296,861
136,2.313,583
137,2.329,558
138,2.346,674
139,2.362,773
140,2.379,826
141,2.396,1041
142,2.412,1141
143,2.429,710
144,2.446,800
145,2.462,923
146,2.479,723
147,2.496,806
148,2.512,600
149,2.529,916
150,2.545,576
151,2.562,561
152,2.579,741
153,2.595,724
154,2.612,609
155,2.629,931
156,2.645,823
157,2.662,450
158,2.678,696
159,2.695,541
160,2.712,724
161,2.728,657
162,2.745,558
163,2.762,607
164,2.778,924
165,2.795,973
166,2.812,1121
167,2.828,994
168,2.845,882
169,2.861,877
170,2.878,1074
171,2.895,1219
172,2.911,729
173,2.928,698
174,2.945,744
175,2.961,693
176,2.978,794
177,2.995,874
178,3.011,1033
179,3.028,549
180,3.044,739
181,3.061,954
182,3.078,851
183,3.094,908
184,3.111,652
185,3.128,1006
186,3.144,539
187,3.161,697
188,3.177,746
189,3.194,850
190,3.211,872
191,3.227,616
192,3.244,517
193,3.261,709
194,3.277,761
195,3.294,842
196,3.311,739
197,3.327,745
198,3.344,667
199,3.360,1038
200,3.377,673
201,3.394,814
202,3.410,585
203,3.427,924
204,3.444,976
205,3.460,731
206,3.477,669
207,3.494,795
208,3.510,809
209,3.527,558
210,3.543,902
211,3.560,1157
212,3.577,585
213,3.593,600
214,3.610,765
215,3.627,611
216,3.643,853
217,3.660,726
218,3.676,602
219,3.693,949
220,3.710,775
221,3.726,863
222,3.743,763
223,3.760,700
224,3.776,569
225,3.793,670
226,3.810,773
227,3.826,752
228,3.843,828
229,3.859,664
230,3.876,765
231,3.893,795
232,3.909,1059
233,3.926,741
234,3.943,533
235,3.959,647
236,3.976,750
237,3.993,748
238,4.009,760
239,4.026,880
240,4.042,1020
241,4.059,592
242,4.076,690
243,4.092,598
244,4.109,959
245,4.126,684
246,4.142,979
247,4.159,1012
248,4.175,721
249,4.192,777
250,4.209,907
251,4.225,1060
252,4.242,729
253,4.259,632
254,4.275,672
255,4.292,716
256,4.309,597
257,4.325,913
258,4.342,731
259,4.358,953
260,4.375,1165
261,4.392,689
262,4.408,624
263,4.425,835
264,4.442,1438
265,4.458,923
266,4.475,497
267,4.492,754
268,4.508,798
269,4.525,617
270,4.541,1097
271,4.558,788
272,4.575,510
273,4.591,1020
274,4.608,602
275,4.625,959
276,4.641,712
277,4.658,998
278,4.675,854
279,4.691,1062
280,4.708,1006
281,4.724,681
282,4.741,801
283,4.758,1137
284,4.774,748
285,4.791,957
286,4.808,1189
287,4.824,889
288,4.841,730
289,4.858,977
290,4.874,872
291,4.891,806
292,4.907,665
293,4.924,636
294,4.941,738
295,4.957,650
296,4.974,764
297,4.991,986
298,5.007,810
299,5.024,876
300,5.040,737
301,5.057,1003
302,5.074,722
303,5.090,659
304,5.107,935
305,5.124,897
306,5.140,636
307,5.157,1073
308,5.174,775
309,5.190,649
310,5.207,899
311,5.223,464
312,5.240,799
313,5.257,904
314,5.273,914
315,5.290,956
316,5.307,800
317,5.323,1021
318,5.340,666
319,5.357,655
320,5.373,625
321,5.390,1005
322,5.406,748
323,5.423,986
324,5.440,960
325,5.456,740
326,5.473,890
327,5.490,927
328,5.506,782
329,5.523,810
330,5.539,1091
331,5.556,692
332,5.573,738
333,5.589,918
334,5.606,677
335,5.623,809
336,5.639,800
337,5.656,859
338,5.673,969
339,5.689,959
340,5.706,834
341,5.722,895
342,5.739,822
343,5.756,799
344,5.772,1227
345,5.789,800
346,5.806,776
347,5.822,1155
348,5.839,1146
349,5.856,754
350,5.872,1285
351,5.889,1133
352,5.905,779
353,5.922,678
354,5.939,598
355,5.955,673
356,5.972,946
357,5.989,618
358,6.005,769
359,6.022,596
360,6.038,890
361,6.055,814
362,6.072,573
363,6.088,660
364,6.105,510
365,6.122,734
366,6.138,565
367,6.155,753
368,6.172,952
369,6.188,1057
370,6.205,1042
371,6.221,708
372,6.238,978
373,6.255,931
374,6.271,934
375,6.288,838
376,6.305,668
377,6.321,832
378,6.338,902
379,6.355,749
380,6.371,909
381,6.388,880
382,6.404,594
383,6.421,902
384,6.438,890
385,6.454,801
386,6.471,719
387,6.488,802
388,6.504,921
389,6.521,689
390,6.537,1077
391,6.554,719
392,6.571,697
393,6.587,705
394,6.604,868
395,6.621,861
396,6.637,783
397,6.654,843
398,6.671,795
399,6.687,646
400,6.704,618
401,6.720,677
402,6.737,734
403,6.754,1095
404,6.770,595
405,6.787,636
406,6.804,867
407,6.820,860
408,6.837,886
409,6.854,824
410,6.870,1090
411,6.887,793
412,6.903,1358
413,6.920,494
414,6.937,821
415,6.953,567
416,6.970,630
417,6.987,651
418,7.003,858
419,7.020,882
420,7.036,775
421,7.053,1141
422,7.070,878
423,7.086,904
424,7.103,778
425,7.120,1011
426,7.136,538
427,7.153,876
428,7.170,834
429,7.186,733
430,7.203,808
431,7.219,799
432,7.236,528
433,7.253,585
434,7.269,599
435,7.286,1002
436,7.303,1075
437,7.319,689
438,7.336,1200
439,7.352,847
440,7.369,784
441,7.386,693
442,7.402,897
443,7.419,828
444,7.436,713
445,7.452,760
446,7.469,739
447,7.486,880
448,7.502,857
449,7.519,883
450,7.535,792
451,7.552,769
452,7.569,698
453,7.585,1080
454,7.602,764
455,7.619,694
456,7.635,773
457,7.652,728
458,7.669,651
459,7.685,996
460,7.702,873
461,7.718,823
462,7.735,1585
463,7.752,672
464,7.768,618
465,7.785,704
466,7.802,1326
467,7.818,817
468,7.835,767
469,7.851,927
470,7.868,593
471,7.885,684
472,7.901,840
473,7.918,695
474,7.935,846
475,7.951,751
476,7.968,783
477,7.985,1012
478,8.001,1101
479,8.018,639
480,8.034,904
481,8.051,773
482,8.068,914
483,8.084,762
484,8.101,1039
485,8.118,637
486,8.134,920
487,8.151,742
488,8.168,1155
489,8.184,1040
490,8.201,809
491,8.217,686
492,8.234,714
493,8.251,947
494,8.267,807
495,8.284,904
496,8.301,800
497,8.317,890
498,8.334,1008
499,8.350,905
500,8.367,562
501,8.384,765
502,8.400,827
503,8.417,720
504,8.434,750
505,8.450,619
506,8.467,669
507,8.484,718
508,8.500,901
509,8.517,769
510,8.533,944
511,8.550,781
512,8.567,733
513,8.583,835
514,8.600,785
515,8.617,1118
516,8.633,834
517,8.650,1023
518,8.667,790
519,8.683,960
520,8.700,1136
521,8.716,864
522,8.733,835
523,8.750,1087
524,8.766,912
525,8.783,1385
526,8.800,803
527,8.816,906
528,8.833,765
529,8.849,1124
530,8.866,1137
531,8.883,780
532,8.899,1053
533,8.916,904
534,8.933,799
535,8.949,879
536,8.966,616
537,8.983,625
538,8.999,632
539,9.016,690
540,9.032,765
541,9.049,517
542,9.066,752
543,9.082,524
544,9.099,585
545,9.116,592
546,9.132,668
547,9.149,571
548,9.166,577
549,9.182,558
550,9.199,510
551,9.215,582
552,9.232,634
553,9.249,511
554,9.265,577
555,9.282,510
556,9.299,604
557,9.315,647
558,9.332,598
559,9.348,552
560,9.365,619
561,9.382,601
562,9.398,510
563,9.415,556
564,9.432,583
565,9.448,523
566,9.465,510
567,9.482,516
568,9.498,765
569,9.515,688
570,9.531,521
571,9.548,875
572,9.565,608
573,9.581,745
574,9.598,583
575,9.615,568
576,9.631,639
577,9.648,582
578,9.665,603
579,9.681,640
580,9.698,581
581,9.714,645
582,9.731,725
583,9.748,838
584,9.764,922
585,9.781,712
586,9.798,524
587,9.814,787
588,9.831,791
589,9.847,1321
590,9.864,798
591,9.881,779
592,9.897,774
593,9.914,941
594,9.931,593
595,9.947,751
596,9.964,1119
597,9.981,662
598,9.997,649
599,10.014,1034
600,10.030,1267
601,10.047,1060
602,10.064,890
603,10.080,1081
604,10.097,680
605,10.114,759
606,10.130,644
607,10.147,849
608,10.164,1008
609,10.180,1157
610,10.197,961
611,10.213,996
612,10.230,941
613,10.247,1078
614,10.263,1226
615,10.280,1160
616,10.297,1068
617,10.313,1083
618,10.330,796
619,10.346,940
620,10.363,867
621,10.380,1251
622,10.396,1058
623,10.413,756
624,10.430,1418
625,10.446,891
626,10.463,1150
627,10.480,874
628,10.496,1449
629,10.513,869
630,10.529,1164
631,10.546,1018
632,10.563,919
633,10.579,1287
634,10.596,1087
635,10.613,845
636,10.629,1297
637,10.646,1291
638,10.663,1158
639,10.679,1306
640,10.696,873
641,10.712,1194
642,10.729,1086
643,10.746,1024
644,10.762,1072
645,10.779,939
646,10.796,1408
647,10.812,657
648,10.829,952
649,10.845,1084
650,10.862,1325
651,10.879,685
652,10.895,1137
653,10.912,780
654,10.929,818
655,10.945,809
656,10.962,1002
657,10.979,904
658,10.995,1080
659,11.012,1043
660,11.028,909
661,11.045,1053
662,11.062,838
663,11.078,710
664,11.095,805
665,11.112,657
666,11.128,862
667,11.145,632
668,11.162,871
669,11.178,825
670,11.195,1420
671,11.211,814
672,11.228,839
673,11.245,623
674,11.261,1017
675,11.278,687
676,11.295,731
677,11.311,810
678,11.328,1354
679,11.344,906
680,11.361,905
681,11.378,979
682,11.394,1167
683,11.411,984
684,11.428,937
685,11.444,975
686,11.461,755
687,11.478,796
688,11.494,929
689,11.511,652
690,11.527,901
691,11.544,946
692,11.561,817
693,11.577,708
694,11.594,618
695,11.611,894
696,11.627,1023
697,11.644,1268
698,11.661,915
699,11.677,959
700,11.694,642
701,11.710,617
702,11.727,846
703,11.744,510
704,11.760,871
705,11.777,571
706,11.794,829
707,11.810,544
708,11.827,948
709,11.843,970
710,11.860,1225
711,11.877,725
712,11.893,699
713,11.910,1063
714,11.927,967
715,11.943,706
716,11.960,652
717,11.977,819
718,11.993,611
719,12.010,1143
720,12.026,738
721,12.043,805
722,12.060,932
723,12.076,1301
724,12.093,912
725,12.110,1557
726,12.126,640
727,12.143,1275
728,12.160,877
729,12.176,1161
730,12.193,934
731,12.209,639
732,12.226,521
733,12.243,701
734,12.259,952
735,12.276,701
736,12.293,749
737,12.309,732
738,12.326,906
739,12.343,1020
740,12.359,806
741,12.376,490
742,12.392,634
743,12.409,747
744,12.426,717
745,12.442,1163
746,12.459,1326
747,12.476,719
748,12.492,634
749,12.509,793
750,12.526,687
751,12.542,689
752,12.559,927
753,12.575,674
754,12.592,1087
755,12.609,961
756,12.625,782
757,12.642,882
758,12.659,706
759,12.675,913
760,12.692,644
761,12.708,919
762,12.725,486
763,12.742,607
764,12.758,574
765,12.775,517
766,12.792,931
767,12.808,749
768,12.825,510
769,12.842,676
770,12.858,753
771,12.875,633
772,12.891,536
773,12.908,448
774,12.925,794
775,12.941,706
776,12.958,971
777,12.975,1020
778,12.991,777
779,13.008,641
780,13.025,569
781,13.041,863
782,13.058,664
783,13.074,1343
784,13.091,870
785,13.108,997
786,13.124,641
787,13.141,783
788,13.158,506
789,13.174,629
790,13.191,883
791,13.207,712
792,13.224,785
793,13.241,987
794,13.257,1162
795,13.274,919
796,13.291,727
797,13.307,648
798,13.324,491
799,13.341,743
800,13.357,886
801,13.374,692
802,13.390,595
803,13.407,587
804,13.424,830
805,13.440,783
806,13.457,689
807,13.474,768
808,13.490,1011
809,13.507,551
810,13.524,572
811,13.540,852
812,13.557,760
813,13.573,725
814,13.590,648
815,13.607,763
816,13.623,581
817,13.640,582
818,13.657,510
819,13.673,726
820,13.690,922
821,13.706,1025
822,13.723,660
823,13.740,685
824,13.756,748
825,13.773,904
826,13.790,786
827,13.806,799
828,13.823,519
829,13.840,974
830,13.856,1029
831,13.873,749
832,13.889,733
833,13.906,627
834,13.923,1093
835,13.939,680
836,13.956,720
837,13.973,697
838,13.989,584
839,14.006,1080
840,14.023,1005
841,14.039,1107
842,14.056,759
843,14.072,596
844,14.089,905
845,14.106,528
846,14.122,836
847,14.139,756
848,14.156,586
849,14.172,816
850,14.189,1054
851,14.205,1023
852,14.222,963
853,14.239,816
854,14.255,957
855,14.272,586
856,14.289,824
857,14.305,744
858,14.322,764
859,14.339,928
860,14.355,935
861,14.372,1034
862,14.388,687
863,14.405,657
864,14.422,803
865,14.438,829
866,14.455,652
867,14.472,998
868,14.488,949
869,14.505,849
870,14.522,830
871,14.538,1259
872,14.555,810
873,14.571,757
874,14.588,694
875,14.605,803
876,14.621,1426
877,14.638,758
878,14.655,792
879,14.671,745
880,14.688,767
881,14.704,1010
882,14.721,759
883,14.738,1063
884,14.754,788
885,14.771,855
886,14.788,895
887,14.804,842
888,14.821,787
889,14.838,893
890,14.854,923
891,14.871,1196
892,14.887,776
893,14.904,1328
894,14.921,695
895,14.937,724
896,14.954,867
897,14.971,895
898,14.987,1029
899,15.004,1130
900,15.020,765
901,15.037,1057
902,15.054,785
903,15.070,1157
904,15.087,670
905,15.104,837
906,15.120,1226
907,15.137,701
908,15.154,692
909,15.170,910
910,15.187,1090
911,15.203,1033
912,15.220,1115
913,15.237,732
914,15.253,740
915,15.270,601
916,15.287,1233
917,15.303,1102
918,15.320,784
919,15.337,1062
920,15.353,948
921,15.370,987
922,15.386,1081
923,15.403,845
924,15.420,1145
925,15.436,937
926,15.453,790
927,15.470,898
928,15.486,823
929,15.503,653
930,15.519,723
931,15.536,754
932,15.553,1040
933,15.569,770
934,15.586,932
935,15.603,665
936,15.619,747
937,15.636,776
938,15.653,1146
939,15.669,686
940,15.686,825
941,15.702,758
942,15.719,1025
943,15.736,1007
944,15.752,580
945,15.769,642
946,15.786,781
947,15.802,897
948,15.819,805
949,15.836,766
950,15.852,826
951,15.869,725
952,15.885,783
953,15.902,994
954,15.919,1028
955,15.935,891
956,15.952,1066
957,15.969,720
958,15.985,1058
959,16.002,746
960,16.018,1061
961,16.035,699
962,16.052,885
963,16.068,644
964,16.085,833
965,16.102,638
966,16.118,764
967,16.135,909
968,16.152,877
969,16.168,601
970,16.185,612
971,16.201,829
972,16.218,704
973,16.235,909
974,16.251,931
975,16.268,1400
976,16.285,1486
977,16.301,1956
978,16.318,2399
979,16.335,1930
980,16.351,2573
981,16.368,1790
982,16.384,2837
983,16.401,1993
984,16.418,2021
985,16.434,1596
986,16.451,1506
987,16.468,1696
988,16.484,1259
989,16.501,1086
990,16.517,853
991,16.534,901
992,16.551,1071
993,16.567,1151
994,16.584,919
995,16.601,1503
996,16.617,1167
997,16.634,768
998,16.651,902
999,16.667,1135
1000,16.684,679
1001,16.700,686
1002,16.717,810
1003,16.734,659
1004,16.750,1322
1005,16.767,903
1006,16.784,777
1007,16.800,905
1008,16.817,1159
1009,16.834,1303
1010,16.850,1546
1011,16.867,1533
1012,16.883,1964
1013,16.900,2617
1014,16.917,3298
1015,16.933,4393
1016,16.950,4686
1017,16.967,6200
1018,16.983,5607
1019,17.000,5534
1020,17.016,6074
1021,17.033,6699
1022,17.050,6036
1023,17.066,7550
1024,17.083,6746
1025,17.100,7517
1026,17.116,6839
1027,17.133,7525
1028,17.150,7380
1029,17.166,7575
1030,17.183,7148
1031,17.199,6385
1032,17.216,6281
1033,17.233,7182
1034,17.249,6472
1035,17.266,7418
1036,17.283,6046
1037,17.299,5716
1038,17.316,6179
1039,17.333,5571
1040,17.349,5577
1041,17.366,5853
1042,17.382,5765
1043,17.399,5579
1044,17.416,5643
1045,17.432,5488
1046,17.449,5768
1047,17.466,6011
1048,17.482,5182
1049,17.499,4632
1050,17.515,4643
1051,17.532,4314
1052,17.549,4193
1053,17.565,5163
1054,17.582,10890
1055,17.599,23525
1056,17.615,40133
1057,17.632,57297
1058,17.649,81919
1059,17.665,111892
1060,17.682,143627
1061,17.698,164821
1062,17.715,176874
1063,17.732,204370
1064,17.748,211155
1065,17.765,226061
1066,17.782,237974
1067,17.798,254536
1068,17.815,263389
1069,17.832,260781
1070,17.848,271159
1071,17.865,268321
1072,17.881,261456
1073,17.898,265352
1074,17.915,268265
1075,17.931,262369
1076,17.948,255746
1077,17.965,234154
1078,17.981,204713
1079,17.998,190457
1080,18.014,171438
1081,18.031,140361
1082,18.048,123035
1083,18.064,99308
1084,18.081,80976
1085,18.098,67248
1086,18.114,53527
1087,18.131,42822
1088,18.148,40399
1089,18.164,30627
1090,18.181,26836
1091,18.197,22822
1092,18.214,19430
1093,18.231,17755
1094,18.247,17955
1095,18.264,14964
1096,18.281,14949
1097,18.297,13789
1098,18.314,13206
1099,18.331,11565
1100,18.347,11996
1101,18.364,12082
1102,18.380,8690
1103,18.397,9324
1104,18.414,9047
1105,18.430,8443
1106,18.447,7833
1107,18.464,4021
1108,18.480,6517
1109,18.497,6621
1110,18.513,6892
1111,18.530,6323
1112,18.547,5967
1113,18.563,7104
1114,18.580,6657
1115,18.597,6273
1116,18.613,7338
1117,18.630,6481
1118,18.647,6996
1119,18.663,7830
1120,18.680,7045
1121,18.696,7162
1122,18.713,7627
1123,18.730,6434
1124,18.746,6693
1125,18.763,6671
1126,18.780,5741
1127,18.796,4281
1128,18.813,5905
1129,18.830,5550
1130,18.846,5658
1131,18.863,5875
1132,18.879,6111
1133,18.896,7174
1134,18.913,6515
1135,18.929,7480
1136,18.946,7785
1137,18.963,8373
1138,18.979,8173
1139,18.996,8644
1140,19.012,7089
1141,19.029,7509
1142,19.046,7626
1143,19.062,13225
1144,19.079,25420
1145,19.096,41747
1146,19.112,47479
1147,19.129,66051
1148,19.146,78496
1149,19.162,78023
1150,19.179,88138
1151,19.195,93764
1152,19.212,99984
1153,19.229,103269
1154,19.245,105207
1155,19.262,111152
1156,19.279,106771
1157,19.295,114515
1158,19.312,111555
1159,19.329,111101
1160,19.345,110561
1161,19.362,110426
1162,19.378,104664
1163,19.395,102900
1164,19.412,98294
1165,19.428,91912
1166,19.445,87355
1167,19.462,83127
1168,19.478,76624
1169,19.495,70936
1170,19.511,66690
1171,19.528,58102
1172,19.545,54289
1173,19.561,49126
1174,19.578,48888
1175,19.595,37968
1176,19.611,32472
1177,19.628,33405
1178,19.645,27701
1179,19.661,23016
1180,19.678,18790
1181,19.694,16618
1182,19.711,15300
1183,19.728,11100
1184,19.744,9048
1185,19.761,7762
1186,19.778,6827
1187,19.794,6443
1188,19.811,5010
1189,19.828,4341
1190,19.844,4613
1191,19.861,3438
1192,19.877,4138
1193,19.894,3307
1194,19.911,3060
1195,19.927,2623
1196,19.944,2281
1197,19.961,2602
1198,19.977,2441
1199,19.994,2136
1200,20.011,2466
1201,20.027,1941
1202,20.044,1845
1203,20.060,1525
1204,20.077,1915
1205,20.094,2127
1206,20.110,1663
1207,20.127,1492
1208,20.144,2055
1209,20.160,2014
1210,20.177,1717
1211,20.194,1571
1212,20.210,2046
1213,20.227,2215
1214,20.243,1469
1215,20.260,1648
1216,20.277,1677
1217,20.293,1580
1218,20.310,1398
1219,20.327,1892
1220,20.343,1797
1221,20.360,1396
1222,20.376,1740
1223,20.393,1432
1224,20.410,1421
1225,20.426,1420
1226,20.443,1381
1227,20.460,1266
1228,20.476,1283
1229,20.493,1624
1230,20.510,1388
1231,20.526,1175
1232,20.543,1804
1233,20.559,1681
1234,20.576,1430
1235,20.593,1431
1236,20.609,1782
1237,20.626,1699
1238,20.643,1724
1239,20.659,1896
1240,20.676,2337
1241,20.693,2289
1242,20.709,3464
1243,20.726,4420
1244,20.742,5932
1245,20.759,7789
1246,20.776,11351
1247,20.792,12381
1248,20.809,20360
1249,20.826,22609
1250,20.842,27016
1251,20.859,32490
1252,20.875,33938
1253,20.892,37877
1254,20.909,35894
1255,20.925,39389
1256,20.942,36206
1257,20.959,40726
1258,20.975,40671
1259,20.992,44981
1260,21.009,42691
1261,21.025,40944
1262,21.042,38693
1263,21.058,39306
1264,21.075,44557
1265,21.092,38778
1266,21.108,38420
1267,21.125,38818
1268,21.142,34320
1269,21.158,38496
1270,21.175,31061
1271,21.192,30737
1272,21.208,31426
1273,21.225,28145
1274,21.241,25381
1275,21.258,22245
1276,21.275,24966
1277,21.291,22416
1278,21.308,21115
1279,21.325,22066
1280,21.341,17893
1281,21.358,16735
1282,21.374,15638
1283,21.391,16976
1284,21.408,14846
1285,21.424,13842
1286,21.441,12806
1287,21.458,13546
1288,21.474,11590
1289,21.491,10330
1290,21.508,11366
1291,21.524,11393
1292,21.541,9345
1293,21.557,8955
1294,21.574,8641
1295,21.591,8498
1296,21.607,8166
1297,21.624,7335
1298,21.641,6265
1299,21.657,6824
1300,21.674,6231
1301,21.691,6293
1302,21.707,5695
1303,21.724,5856
1304,21.740,5705
1305,21.757,5935
1306,21.774,6123
1307,21.790,4600
1308,21.807,5028
