#"+ BPC(1083.03666) Scan stir_75_Ecoli-r014.d "
#Point,X(Minutes),Y(Counts)
0,0.065,0
1,0.082,0
2,0.099,0
3,0.115,0
4,0.132,0
5,0.149,0
6,0.165,0
7,0.182,0
8,0.198,0.15773075425159
9,0.215,0
10,0.232,0
11,0.248,0
12,0.265,0
13,0.282,0
14,0.298,0
15,0.315,0
16,0.332,0
17,0.348,0
18,0.365,0
19,0.381,0
20,0.398,0
21,0.415,0
22,0.431,0
23,0.448,0
24,0.465,0
25,0.481,0
26,0.498,0
27,0.514,0
28,0.531,0.165525414363975
29,0.548,0
30,0.564,0
31,0.581,0
32,0.598,0
33,0.614,0
34,0.631,0
35,0.648,0
36,0.664,0
37,0.681,0
38,0.697,0
39,0.714,0
40,0.731,0
41,0.747,0
42,0.764,0
43,0.781,0
44,0.797,0
45,0.814,0
46,0.831,0
47,0.847,0
48,0.864,0
49,0.880,0
50,0.897,0
51,0.914,0
52,0.930,0
53,0.947,0
54,0.964,0
55,0.980,0
56,0.997,0
57,1.013,0.159051729984969
58,1.030,0
59,1.047,0
60,1.063,0
61,1.080,0
62,1.097,0
63,1.113,0
64,1.130,0
65,1.147,0
66,1.163,0
67,1.180,0
68,1.196,0
69,1.213,0
70,1.230,0
71,1.246,0
72,1.263,0
73,1.280,0
74,1.296,0
75,1.313,0
76,1.330,0
77,1.346,0
78,1.363,0
79,1.379,0
80,1.396,0
81,1.413,0
82,1.429,0
83,1.446,0
84,1.463,0
85,1.479,0
86,1.496,0
87,1.512,0
88,1.529,0
89,1.546,0
90,1.562,0
91,1.579,0
92,1.596,0
93,1.612,0
94,1.629,0
95,1.646,0
96,1.662,0
97,1.679,0
98,1.695,0
99,1.712,0
100,1.729,0
101,1.745,0
102,1.762,0
103,1.779,0
104,1.795,0
105,1.812,0
106,1.829,0
107,1.845,0
108,1.862,0
109,1.878,0
110,1.895,0
111,1.912,0
112,1.928,0
113,1.945,0
114,1.962,0
115,1.978,0
116,1.995,0
117,2.011,0
118,2.028,0
119,2.045,0
120,2.061,0
121,2.078,0
122,2.095,0
123,2.111,0
124,2.128,0
125,2.145,0
126,2.161,0
127,2.178,0
128,2.194,0
129,2.211,0
130,2.228,0
131,2.244,0
132,2.261,0
133,2.278,0
134,2.294,0
135,2.311,0
136,2.327,0
137,2.344,0
138,2.361,0
139,2.377,0
140,2.394,0
141,2.411,0
142,2.427,0
143,2.444,0
144,2.461,0
145,2.477,0
146,2.494,0
147,2.510,0
148,2.527,0
149,2.544,0
150,2.560,0
151,2.577,0
152,2.594,0
153,2.610,0
154,2.627,0
155,2.644,0.163535086284995
156,2.660,0
157,2.677,0
158,2.693,0
159,2.710,0
160,2.727,0
161,2.743,0
162,2.760,0
163,2.777,0
164,2.793,0
165,2.810,0
166,2.826,0
167,2.843,0
168,2.860,0
169,2.876,0
170,2.893,0
171,2.910,0
172,2.926,0
173,2.943,0
174,2.960,0
175,2.976,0
176,2.993,0
177,3.009,0
178,3.026,0
179,3.043,0
180,3.059,0
181,3.076,0
182,3.093,0
183,3.109,0
184,3.126,0
185,3.143,0
186,3.159,0
187,3.176,0
188,3.192,0
189,3.209,0
190,3.226,0
191,3.242,0
192,3.259,0
193,3.276,0
194,3.292,0
195,3.309,0
196,3.325,0
197,3.342,0
198,3.359,0
199,3.375,0
200,3.392,0
201,3.409,0
202,3.425,0
203,3.442,0
204,3.459,0
205,3.475,0
206,3.492,0
207,3.508,0
208,3.525,0
209,3.542,0
210,3.558,0
211,3.575,0
212,3.592,0
213,3.608,0
214,3.625,0
215,3.642,0
216,3.658,0
217,3.675,0
218,3.691,0.184902986984322
219,3.708,0
220,3.725,0
221,3.741,0
222,3.758,0
223,3.775,0
224,3.791,0
225,3.808,0
226,3.824,0
227,3.841,0
228,3.858,0
229,3.874,0
230,3.891,0.169630886346787
231,3.908,0
232,3.924,0
233,3.941,0
234,3.958,0
235,3.974,0
236,3.991,0
237,4.007,0
238,4.024,0.156043096129095
239,4.041,0
240,4.057,0
241,4.074,0
242,4.091,0
243,4.107,0
244,4.124,0
245,4.141,0
246,4.157,0
247,4.174,0
248,4.190,0
249,4.207,0
250,4.224,0
251,4.240,0
252,4.257,0
253,4.274,0
254,4.290,0
255,4.307,0
256,4.323,0
257,4.340,0
258,4.357,0
259,4.373,0
260,4.390,0
261,4.407,0
262,4.423,0
263,4.440,0
264,4.457,0
265,4.473,0
266,4.490,0
267,4.506,0
268,4.523,0
269,4.540,0
270,4.556,0
271,4.573,0
272,4.590,0
273,4.606,0
274,4.623,0
275,4.640,0
276,4.656,0
277,4.673,0
278,4.689,0
279,4.706,0
280,4.723,0
281,4.739,0
282,4.756,0
283,4.773,0
284,4.789,0
285,4.806,0
286,4.822,0
287,4.839,0
288,4.856,0
289,4.872,0
290,4.889,0
291,4.906,0
292,4.922,0
293,4.939,0
294,4.956,0
295,4.972,0
296,4.989,0
297,5.005,0
298,5.022,0
299,5.039,0
300,5.055,0
301,5.072,0
302,5.089,0
303,5.105,0.211935487796962
304,5.122,0
305,5.139,0
306,5.155,0
307,5.172,0
308,5.188,0
309,5.205,0
310,5.222,0
311,5.238,0
312,5.255,0
313,5.272,0.168215402392432
314,5.288,0
315,5.305,0
316,5.321,0
317,5.338,0
318,5.355,0
319,5.371,0
320,5.388,0
321,5.405,0
322,5.421,0.133816083808789
323,5.438,0
324,5.455,0
325,5.471,0
326,5.488,0
327,5.504,0
328,5.521,0
329,5.538,0
330,5.554,0
331,5.571,0
332,5.588,0
333,5.604,0
334,5.621,0
335,5.638,0
336,5.654,0
337,5.671,0
338,5.687,0
339,5.704,0
340,5.721,0
341,5.737,0
342,5.754,0
343,5.771,0
344,5.787,0
345,5.804,0
346,5.820,0.166351247047366
347,5.837,0
348,5.854,0
349,5.870,0
350,5.887,0
351,5.904,0
352,5.920,0
353,5.937,0
354,5.954,0
355,5.970,0
356,5.987,0
357,6.003,0
358,6.020,0
359,6.037,0
360,6.053,0
361,6.070,0
362,6.087,0
363,6.103,0
364,6.120,0
365,6.137,0
366,6.153,0
367,6.170,0
368,6.186,0
369,6.203,0
370,6.220,0
371,6.236,0
372,6.253,0
373,6.270,0
374,6.286,0
375,6.303,0
376,6.319,0
377,6.336,0
378,6.353,0
379,6.369,0
380,6.386,0
381,6.403,0
382,6.419,0
383,6.436,0
384,6.453,0
385,6.469,0
386,6.486,0
387,6.502,0
388,6.519,0
389,6.536,0
390,6.552,0
391,6.569,0
392,6.586,0
393,6.602,0
394,6.619,0
395,6.636,0
396,6.652,0
397,6.669,0
398,6.685,0
399,6.702,0
400,6.719,0
401,6.735,0
402,6.752,0
403,6.769,0
404,6.785,0
405,6.802,0
406,6.818,0
407,6.835,0
408,6.852,0
409,6.868,0
410,6.885,0
411,6.902,0
412,6.918,0
413,6.935,0
414,6.952,0
415,6.968,0
416,6.985,0
417,7.001,0
418,7.018,0
419,7.035,0
420,7.051,0
421,7.068,0
422,7.085,0
423,7.101,0
424,7.118,0
425,7.135,0
426,7.151,0
427,7.168,0
428,7.184,0
429,7.201,0
430,7.218,0
431,7.234,0
432,7.251,0
433,7.268,0
434,7.284,0
435,7.301,0
436,7.317,0
437,7.334,0
438,7.351,0
439,7.367,0
440,7.384,0
441,7.401,0
442,7.417,0
443,7.434,0
444,7.451,0
445,7.467,0
446,7.484,0
447,7.500,0
448,7.517,0
449,7.534,0
450,7.550,0
451,7.567,0
452,7.584,0
453,7.600,0
454,7.617,0
455,7.634,0
456,7.650,0
457,7.667,0
458,7.683,0
459,7.700,0
460,7.717,0
461,7.733,0
462,7.750,0
463,7.767,0
464,7.783,0
465,7.800,0
466,7.816,0
467,7.833,0
468,7.850,0
469,7.866,0
470,7.883,0
471,7.900,0.135635995994864
472,7.916,0
473,7.933,0
474,7.950,0
475,7.966,0
476,7.983,0
477,7.999,0.158872538753164
478,8.016,0
479,8.033,0
480,8.049,0
481,8.066,0
482,8.083,0
483,8.099,0
484,8.116,0
485,8.133,0
486,8.149,0
487,8.166,0
488,8.182,0
489,8.199,0
490,8.216,0
491,8.232,0
492,8.249,0
493,8.266,0
494,8.282,0
495,8.299,0
496,8.315,0
497,8.332,0.19684352921802
498,8.349,0
499,8.365,0
500,8.382,0
501,8.399,0
502,8.415,0
503,8.432,0
504,8.449,0
505,8.465,0
506,8.482,0
507,8.498,0
508,8.515,0
509,8.532,0
510,8.548,0
511,8.565,0
512,8.582,0
513,8.598,0
514,8.615,0
515,8.632,0
516,8.648,0
517,8.665,0
518,8.681,0
519,8.698,0
520,8.715,0
521,8.731,0
522,8.748,0
523,8.765,0
524,8.781,0.171788767933861
525,8.798,0
526,8.814,0
527,8.831,0
528,8.848,0
529,8.864,0
530,8.881,0
531,8.898,0
532,8.914,0
533,8.931,0
534,8.948,0
535,8.964,0
536,8.981,0
537,8.997,0
538,9.014,0
539,9.031,0
540,9.047,0
541,9.064,0
542,9.081,0.187942502901923
543,9.097,0
544,9.114,0
545,9.131,0
546,9.147,0
547,9.164,0
548,9.180,0
549,9.197,0
550,9.214,0
551,9.230,0
552,9.247,0
553,9.264,0
554,9.280,0
555,9.297,0
556,9.313,0
557,9.330,0
558,9.347,0
559,9.363,0
560,9.380,0
561,9.397,0
562,9.413,0
563,9.430,0
564,9.447,0
565,9.463,0
566,9.480,0
567,9.496,0
568,9.513,0
569,9.530,0
570,9.546,0
571,9.563,0
572,9.580,0
573,9.596,0
574,9.613,0
575,9.629,0
576,9.646,0
577,9.663,0
578,9.679,0
579,9.696,0
580,9.713,0
581,9.729,0
582,9.746,0
583,9.763,0
584,9.779,0
585,9.796,0
586,9.812,0
587,9.829,0
588,9.846,0
589,9.862,0
590,9.879,0
591,9.896,0
592,9.912,0
593,9.929,0
594,9.946,0
595,9.962,0
596,9.979,0
597,9.995,0
598,10.012,0
599,10.029,0
600,10.045,0
601,10.062,0
602,10.079,0
603,10.095,0
604,10.112,0
605,10.128,0
606,10.145,0
607,10.162,0
608,10.178,0.196272359642753
609,10.195,0
610,10.212,0
611,10.228,0
612,10.245,0
613,10.262,0
614,10.278,0
615,10.295,0
616,10.311,0
617,10.328,0
618,10.345,0
619,10.361,0
620,10.378,0
621,10.395,0
622,10.411,0
623,10.428,0
624,10.445,0
625,10.461,0
626,10.478,0
627,10.494,0
628,10.511,0
629,10.528,0
630,10.544,0
631,10.561,0
632,10.578,0
633,10.594,0
634,10.611,0
635,10.627,0
636,10.644,0
637,10.661,0
638,10.677,0
639,10.694,0
640,10.711,0
641,10.727,0
642,10.744,0
643,10.761,0
644,10.777,0
645,10.794,0
646,10.810,0
647,10.827,0
648,10.844,0
649,10.860,0
650,10.877,0
651,10.894,0
652,10.910,0
653,10.927,0
654,10.944,0
655,10.960,0
656,10.977,0
657,10.993,0
658,11.010,0
659,11.027,0
660,11.043,0
661,11.060,0
662,11.077,0
663,11.093,0
664,11.110,0
665,11.126,0
666,11.143,0
667,11.160,0.132805404455093
668,11.176,0
669,11.193,0
670,11.210,0
671,11.226,0
672,11.243,0
673,11.260,0
674,11.276,0
675,11.293,0
676,11.309,0
677,11.326,0
678,11.343,0
679,11.359,0
680,11.376,0
681,11.393,0
682,11.409,0
683,11.426,0
684,11.443,0
685,11.459,0
686,11.476,0
687,11.492,0
688,11.509,0
689,11.526,0
690,11.542,0
691,11.559,0
692,11.576,0
693,11.592,0
694,11.609,0
695,11.625,0
696,11.642,0
697,11.659,0
698,11.675,0
699,11.692,0
700,11.709,0
701,11.725,0
702,11.742,0
703,11.759,0
704,11.775,0
705,11.792,0
706,11.808,0
707,11.825,0
708,11.842,0
709,11.858,0
710,11.875,0
711,11.892,0
712,11.908,0
713,11.925,0
714,11.942,0
715,11.958,0
716,11.975,0
717,11.991,0
718,12.008,0
719,12.025,0
720,12.041,0
721,12.058,0
722,12.075,0
723,12.091,0
724,12.108,0
725,12.124,0
726,12.141,0
727,12.158,0
728,12.174,0
729,12.191,0
730,12.208,0
731,12.224,0
732,12.241,0
733,12.258,0
734,12.274,0
735,12.291,0
736,12.307,0
737,12.324,0
738,12.341,0
739,12.357,0
740,12.374,0
741,12.391,0
742,12.407,0
743,12.424,0
744,12.441,0
745,12.457,0
746,12.474,0
747,12.490,0
748,12.507,0
749,12.524,0
750,12.540,0
751,12.557,0
752,12.574,0
753,12.590,0
754,12.607,0
755,12.623,0
756,12.640,0
757,12.657,0
758,12.673,0
759,12.690,0
760,12.707,0
761,12.723,0
762,12.740,0
763,12.757,0
764,12.773,0
765,12.790,0
766,12.806,0
767,12.823,0
768,12.840,0
769,12.856,0
770,12.873,0
771,12.890,0
772,12.906,0
773,12.923,0
774,12.940,0
775,12.956,0
776,12.973,0
777,12.989,0.168197455536804
778,13.006,0
779,13.023,0
780,13.039,0
781,13.056,0
782,13.073,0
783,13.089,0
784,13.106,0
785,13.122,0
786,13.139,0
787,13.156,0
788,13.172,0
789,13.189,0
790,13.206,0
791,13.222,0
792,13.239,0
793,13.256,0
794,13.272,0
795,13.289,0
796,13.305,0
797,13.322,0
798,13.339,0
799,13.355,0
800,13.372,0
801,13.389,0
802,13.405,0
803,13.422,0
804,13.439,0
805,13.455,0
806,13.472,0
807,13.488,0
808,13.505,0
809,13.522,0
810,13.538,0
811,13.555,0
812,13.572,0
813,13.588,0
814,13.605,0
815,13.621,0
816,13.638,0
817,13.655,0
818,13.671,0
819,13.688,0
820,13.705,0
821,13.721,0
822,13.738,0
823,13.755,0
824,13.771,0
825,13.788,0
826,13.804,0
827,13.821,0
828,13.838,0
829,13.854,0
830,13.871,0
831,13.888,0
832,13.904,0
833,13.921,0
834,13.938,0
835,13.954,0
836,13.971,0
837,13.987,0
838,14.004,0
839,14.021,0
840,14.037,0
841,14.054,0
842,14.071,0
843,14.087,0
844,14.104,0
845,14.120,0
846,14.137,0
847,14.154,0
848,14.170,0
849,14.187,0
850,14.204,0
851,14.220,0
852,14.237,0
853,14.254,0
854,14.270,0
855,14.287,0
856,14.303,0
857,14.320,0
858,14.337,0
859,14.353,0
860,14.370,0
861,14.387,0
862,14.403,0
863,14.420,0
864,14.437,0
865,14.453,0
866,14.470,0
867,14.486,0
868,14.503,0
869,14.520,0
870,14.536,0
871,14.553,0
872,14.570,0
873,14.586,0
874,14.603,0
875,14.619,0
876,14.636,0
877,14.653,0
878,14.669,0
879,14.686,0
880,14.703,0
881,14.719,0
882,14.736,0
883,14.753,0
884,14.769,0
885,14.786,0
886,14.802,0
887,14.819,0
888,14.836,0
889,14.852,0
890,14.869,0
891,14.886,0
892,14.902,0
893,14.919,0
894,14.936,0
895,14.952,0
896,14.969,0
897,14.985,0
898,15.002,0.177138773138053
899,15.019,0
900,15.035,0
901,15.052,0
902,15.069,0
903,15.085,0
904,15.102,0
905,15.119,0
906,15.135,0
907,15.152,0
908,15.168,0
909,15.185,0
910,15.202,0
911,15.218,0
912,15.235,0
913,15.252,0
914,15.268,0
915,15.285,0
916,15.302,0
917,15.318,0
918,15.335,0
919,15.351,0
920,15.368,0
921,15.385,0
922,15.401,0
923,15.418,0
924,15.435,0
925,15.451,0
926,15.468,0
927,15.484,0
928,15.501,0
929,15.518,0
930,15.534,0
931,15.551,0
932,15.568,0
933,15.584,0
934,15.601,0
935,15.618,0
936,15.634,0
937,15.651,0
938,15.667,0
939,15.684,0
940,15.701,0
941,15.717,0
942,15.734,0
943,15.751,0
944,15.767,0
945,15.784,0
946,15.801,0
947,15.817,0
948,15.834,0
949,15.850,0
950,15.867,0
951,15.884,0
952,15.900,0
953,15.917,0
954,15.934,0
955,15.950,0
956,15.967,0
957,15.983,0
958,16.000,0
959,16.017,0
960,16.033,0
961,16.050,0
962,16.067,0
963,16.083,0
964,16.100,0
965,16.117,0
966,16.133,0
967,16.150,0
968,16.166,0
969,16.183,0
970,16.200,0
971,16.216,0
972,16.233,0
973,16.250,0
974,16.266,0
975,16.283,0
976,16.300,0
977,16.316,0
978,16.333,0
979,16.349,0
980,16.366,0
981,16.383,0
982,16.399,0
983,16.416,0
984,16.433,0
985,16.449,0
986,16.466,0
987,16.482,0
988,16.499,0
989,16.516,0
990,16.532,0
991,16.549,0
992,16.566,0
993,16.582,0
994,16.599,0
995,16.616,0
996,16.632,0
997,16.649,0
998,16.665,0
999,16.682,0
1000,16.699,0
1001,16.715,0
1002,16.732,0
1003,16.749,0
1004,16.765,0
1005,16.782,0
1006,16.799,0
1007,16.815,0
1008,16.832,0
1009,16.848,0
1010,16.865,0
1011,16.882,0
1012,16.898,0
1013,16.915,0
1014,16.932,0
1015,16.948,0
1016,16.965,0
1017,16.981,0
1018,16.998,0
1019,17.015,0
1020,17.031,0
1021,17.048,0
1022,17.065,0
1023,17.081,0
1024,17.098,0
1025,17.115,0
1026,17.131,0
1027,17.148,0
1028,17.164,0
1029,17.181,0
1030,17.198,0
1031,17.214,0
1032,17.231,0
1033,17.248,0.146640627535538
1034,17.264,0
1035,17.281,0
1036,17.297,0
1037,17.314,0
1038,17.331,0
1039,17.347,0
1040,17.364,0
1041,17.381,0
1042,17.397,0
1043,17.414,0
1044,17.431,0
1045,17.447,0
1046,17.464,0
1047,17.480,0
1048,17.497,0
1049,17.514,0
1050,17.530,0
1051,17.547,0
1052,17.564,0
1053,17.580,0
1054,17.597,0
1055,17.614,0
1056,17.630,0
1057,17.647,0
1058,17.663,0
1059,17.680,0
1060,17.697,0
1061,17.713,0
1062,17.730,0
1063,17.747,0
1064,17.763,0
1065,17.780,0
1066,17.796,0
1067,17.813,0
1068,17.830,0
1069,17.846,0
1070,17.863,0
1071,17.880,0
1072,17.896,0
1073,17.913,0
1074,17.930,0
1075,17.946,0
1076,17.963,0
1077,17.979,0
1078,17.996,0
1079,18.013,0
1080,18.029,0
1081,18.046,0
1082,18.063,0
1083,18.079,0
1084,18.096,0
1085,18.113,0
1086,18.129,0
1087,18.146,0
1088,18.162,0
1089,18.179,0
1090,18.196,0
1091,18.212,0
1092,18.229,0
1093,18.246,0
1094,18.262,0
1095,18.279,0
1096,18.295,0
1097,18.312,0
1098,18.329,0
1099,18.345,0
1100,18.362,0
1101,18.379,0
1102,18.395,0
1103,18.412,0
1104,18.429,0
1105,18.445,0
1106,18.462,0
1107,18.478,0
1108,18.495,0
1109,18.512,0
1110,18.528,0
1111,18.545,0.177442681150252
1112,18.562,0
1113,18.578,0
1114,18.595,0
1115,18.612,0
1116,18.628,0
1117,18.645,0
1118,18.661,0
1119,18.678,0
1120,18.695,0
1121,18.711,0
1122,18.728,0
1123,18.745,0
1124,18.761,0
1125,18.778,0
1126,18.794,0
1127,18.811,0
1128,18.828,0
1129,18.844,0
1130,18.861,0
1131,18.878,0
1132,18.894,0
1133,18.911,0
1134,18.928,0
1135,18.944,0
1136,18.961,0
1137,18.977,0
1138,18.994,0
1139,19.011,0
1140,19.027,0.170328595120458
1141,19.044,0.161631580577119
1142,19.061,0
1143,19.077,0
1144,19.094,0
1145,19.111,0
1146,19.127,0
1147,19.144,0
1148,19.160,0
1149,19.177,0.205072657745967
1150,19.194,0
1151,19.210,0
1152,19.227,0
1153,19.244,0
1154,19.260,0
1155,19.277,0
1156,19.293,0
1157,19.310,0
1158,19.327,0
1159,19.343,0
1160,19.360,0
1161,19.377,0.169495651045047
1162,19.393,0.144683885431964
1163,19.410,0
1164,19.427,0
1165,19.443,0
1166,19.460,0
1167,19.476,0
1168,19.493,0
1169,19.510,0
1170,19.526,0
1171,19.543,0
1172,19.560,0
1173,19.576,0
1174,19.593,0
1175,19.610,0
1176,19.626,0
1177,19.643,0
1178,19.659,0.137133488759706
1179,19.676,0
1180,19.693,0
1181,19.709,0
1182,19.726,0
1183,19.743,0
1184,19.759,0
1185,19.776,0
1186,19.792,0
1187,19.809,0
1188,19.826,0
1189,19.842,0
1190,19.859,0
1191,19.876,0
1192,19.892,0
1193,19.909,0
1194,19.926,0
1195,19.942,0
1196,19.959,0
1197,19.975,0
1198,19.992,0
1199,20.009,0
1200,20.025,0
1201,20.042,0
1202,20.059,0
1203,20.075,0
1204,20.092,0
1205,20.109,0
1206,20.125,0
1207,20.142,0
1208,20.158,0
1209,20.175,0
1210,20.192,0.144132158283628
1211,20.208,0
1212,20.225,0
1213,20.242,0
1214,20.258,0
1215,20.275,0
1216,20.291,0.1838137356628
1217,20.308,0
1218,20.325,0
1219,20.341,0
1220,20.358,0
1221,20.375,0.233217011825243
1222,20.391,0
1223,20.408,0
1224,20.425,0
1225,20.441,0
1226,20.458,0
1227,20.474,0
1228,20.491,0
1229,20.508,0
1230,20.524,0
1231,20.541,0
1232,20.558,0
1233,20.574,0
1234,20.591,0
1235,20.608,0
1236,20.624,0
1237,20.641,0
1238,20.657,0
1239,20.674,0
1240,20.691,0.187181108542329
1241,20.707,0
1242,20.724,0.273903306081792
1243,20.741,0
1244,20.757,0
1245,20.774,0
1246,20.790,0
1247,20.807,0
1248,20.824,0
1249,20.840,0
1250,20.857,0
1251,20.874,0
1252,20.890,0
1253,20.907,0
1254,20.924,0
1255,20.940,0.173656825630538
1256,20.957,0
1257,20.973,0
1258,20.990,0
1259,21.007,0
1260,21.023,0
1261,21.040,0.179199274214896
1262,21.057,0.146015241024449
1263,21.073,0
1264,21.090,0
1265,21.107,0
1266,21.123,0
1267,21.140,0
1268,21.156,0
1269,21.173,0
1270,21.190,0
1271,21.206,0
1272,21.223,0.24076738868861
1273,21.240,0
1274,21.256,0
1275,21.273,0
1276,21.289,0
1277,21.306,0
1278,21.323,0
1279,21.339,0.166818122809295
1280,21.356,0
1281,21.373,0
1282,21.389,0
1283,21.406,0
1284,21.423,0
1285,21.439,0.141468951876374
1286,21.456,0
1287,21.472,0
1288,21.489,0
1289,21.506,0
1290,21.522,0
1291,21.539,0
1292,21.556,0
1293,21.572,0
1294,21.589,0
1295,21.606,0
1296,21.622,0
1297,21.639,0
1298,21.655,0
1299,21.672,0
1300,21.689,0
1301,21.705,0
1302,21.722,0.170874983772556
1303,21.739,0
1304,21.755,0
1305,21.772,0.261604064442222
1306,21.788,0
1307,21.805,0
1308,21.822,0.172421998765954
1309,21.838,0
1310,21.855,0
1311,21.872,0
1312,21.888,0
1313,21.905,0.216280845454896
1314,21.922,0
1315,21.938,0
1316,21.955,0.221511026674875
1317,21.971,0
1318,21.988,0
1319,22.005,0
1320,22.021,0
1321,22.038,0.150092623999223
1322,22.055,0
1323,22.071,0
1324,22.088,0
1325,22.105,0
1326,22.121,0
1327,22.138,0
1328,22.154,0
1329,22.171,0
1330,22.188,0
1331,22.204,0
1332,22.221,0.165572153443286
1333,22.238,0
1334,22.254,0
1335,22.271,0
1336,22.287,0
1337,22.304,0
1338,22.321,0
1339,22.337,0.175364292644455
1340,22.354,0
1341,22.371,0
1342,22.387,0
1343,22.404,0.184743208466111
1344,22.421,0.159842025517148
1345,22.437,0.207711281318967
1346,22.454,0.133065039594963
1347,22.470,0
1348,22.487,0
1349,22.504,0
1350,22.520,0.419421343931545
1351,22.537,0.248604439828638
1352,22.554,0.154693060752
1353,22.570,0.162939571582171
1354,22.587,0.151962632871705
1355,22.604,0
1356,22.620,0.288407475425565
1357,22.637,0.361124053800569
1358,22.653,0.479889926269088
1359,22.670,0
1360,22.687,0.238614518751065
1361,22.703,0.237154544026576
1362,22.720,0.279480836212859
1363,22.737,0
1364,22.753,0
1365,22.770,0
1366,22.786,0
1367,22.803,0
1368,22.820,0.363423192592375
1369,22.836,0.20844383393265
1370,22.853,0.201043766937395
1371,22.870,0
1372,22.886,0
1373,22.903,0
1374,22.920,0.300134893796451
1375,22.936,0.352845561515197
1376,22.953,0
1377,22.969,0.175440794583127
1378,22.986,0.410901658584216
1379,23.003,0.18391610801367
1380,23.019,0
1381,23.036,0
1382,23.053,0
1383,23.069,0.226543713247375
1384,23.086,0.329357683542532
1385,23.103,0.315209975199902
1386,23.119,0
1387,23.136,0.205426959577944
1388,23.152,0
1389,23.169,0.355058373158185
1390,23.186,0
1391,23.202,0
1392,23.219,0
1393,23.236,0.170342798095608
1394,23.252,0
1395,23.269,0
1396,23.285,0.380989677887775
1397,23.302,0.221935689689184
1398,23.319,0.357331998097839
1399,23.335,0.231595515400098
1400,23.352,0
1401,23.369,0
1402,23.385,0
1403,23.402,0.174199787344419
1404,23.419,0
1405,23.435,0
1406,23.452,0
1407,23.468,0.21641907189924
1408,23.485,0
1409,23.502,0
1410,23.518,0.144086320508877
1411,23.535,0.165922473688087
1412,23.552,0
1413,23.568,0.427542672472373
1414,23.585,0.272719982334906
1415,23.602,0.285125855237002
1416,23.618,0.27145908696921
1417,23.635,0.189334235995462
1418,23.651,0.2279791249465
1419,23.668,0.333468741632724
1420,23.685,0.246887999386907
1421,23.701,0.268096091854685
1422,23.718,0.193477087356387
1423,23.735,0
1424,23.751,0
1425,23.768,0
1426,23.784,0.181916558895733
1427,23.801,0.30105374903396
1428,23.818,0.346003768506893
1429,23.834,0
1430,23.851,0.236738359217797
1431,23.868,0
1432,23.884,0
