#"+ BPC Scan stir_75um_sp-r015.d "
#Point,X(Minutes),Y(Counts)
0,0.065,1231
1,0.082,1291
2,0.098,919
3,0.115,1092
4,0.132,1224
5,0.148,1263
6,0.165,870
7,0.181,1024
8,0.198,1188
9,0.215,1092
10,0.231,1298
11,0.248,1310
12,0.265,814
13,0.281,1215
14,0.298,954
15,0.315,928
16,0.331,865
17,0.348,1464
18,0.364,1258
19,0.381,1074
20,0.398,963
21,0.414,950
22,0.431,1025
23,0.448,740
24,0.464,1003
25,0.481,1032
26,0.497,1223
27,0.514,1228
28,0.531,2091
29,0.547,1328
30,0.564,1372
31,0.581,1121
32,0.597,798
33,0.614,1085
34,0.631,1476
35,0.647,1662
36,0.664,1459
37,0.680,1560
38,0.697,900
39,0.714,1326
40,0.730,1285
41,0.747,1228
42,0.764,1315
43,0.780,1009
44,0.797,1000
45,0.814,1153
46,0.830,790
47,0.847,1051
48,0.863,1280
49,0.880,853
50,0.897,1468
51,0.913,1211
52,0.930,1139
53,0.947,1283
54,0.963,1251
55,0.980,1418
56,0.996,1719
57,1.013,1318
58,1.030,1320
59,1.046,1496
60,1.063,971
61,1.080,1267
62,1.096,1117
63,1.113,1721
64,1.130,1436
65,1.146,1374
66,1.163,1122
67,1.179,1243
68,1.196,1086
69,1.213,1416
70,1.229,1282
71,1.246,1117
72,1.263,1298
73,1.279,1284
74,1.296,1252
75,1.313,1784
76,1.329,1427
77,1.346,1359
78,1.362,1028
79,1.379,1031
80,1.396,1005
81,1.412,1364
82,1.429,1202
83,1.446,1024
84,1.462,1462
85,1.479,1253
86,1.495,1251
87,1.512,1065
88,1.529,1244
89,1.545,966
90,1.562,1146
91,1.579,631
92,1.595,942
93,1.612,1044
94,1.629,1470
95,1.645,1237
96,1.662,1284
97,1.678,1484
98,1.695,1415
99,1.712,952
100,1.728,1242
101,1.745,1046
102,1.762,1115
103,1.778,1174
104,1.795,1268
105,1.812,828
106,1.828,1097
107,1.845,1601
108,1.861,1068
109,1.878,1186
110,1.895,1508
111,1.911,926
112,1.928,1156
113,1.945,897
114,1.961,1597
115,1.978,1499
116,1.995,1344
117,2.011,1108
118,2.028,1689
119,2.044,1479
120,2.061,1187
121,2.078,1150
122,2.094,1247
123,2.111,968
124,2.128,1464
125,2.144,1170
126,2.161,1003
127,2.177,1574
128,2.194,1404
129,2.211,1477
130,2.227,832
131,2.244,1141
132,2.261,1556
133,2.277,1416
134,2.294,1441
135,2.311,700
136,2.327,1252
137,2.344,1382
138,2.360,1506
139,2.377,965
140,2.394,1662
141,2.410,1351
142,2.427,996
143,2.444,1079
144,2.460,1041
145,2.477,1136
146,2.494,1253
147,2.510,1468
148,2.527,1404
149,2.543,1374
150,2.560,1353
151,2.577,999
152,2.593,1446
153,2.610,1007
154,2.627,1471
155,2.643,1268
156,2.660,1679
157,2.677,1269
158,2.693,1362
159,2.710,1125
160,2.726,1801
161,2.743,1344
162,2.760,1489
163,2.776,1324
164,2.793,1287
165,2.810,1187
166,2.826,1099
167,2.843,1060
168,2.859,1681
169,2.876,1432
170,2.893,910
171,2.909,1299
172,2.926,1174
173,2.943,1058
174,2.959,1248
175,2.976,1495
176,2.993,1220
177,3.009,1408
178,3.026,1188
179,3.042,1283
180,3.059,1857
181,3.076,737
182,3.092,1333
183,3.109,1592
184,3.126,1562
185,3.142,857
186,3.159,1407
187,3.176,1199
188,3.192,1113
189,3.209,1475
190,3.225,1010
191,3.242,1559
192,3.259,1121
193,3.275,1648
194,3.292,1308
195,3.309,1055
196,3.325,1789
197,3.342,1463
198,3.358,1542
199,3.375,1335
200,3.392,1070
201,3.408,1301
202,3.425,1426
203,3.442,1669
204,3.458,1057
205,3.475,1594
206,3.492,1209
207,3.508,1194
208,3.525,1739
209,3.541,1301
210,3.558,1512
211,3.575,1476
212,3.591,1428
213,3.608,1657
214,3.625,1152
215,3.641,1327
216,3.658,963
217,3.675,1332
218,3.691,1440
219,3.708,1363
220,3.724,1297
221,3.741,806
222,3.758,947
223,3.774,888
224,3.791,957
225,3.808,1677
226,3.824,846
227,3.841,1908
228,3.857,1295
229,3.874,1273
230,3.891,1003
231,3.907,1444
232,3.924,1163
233,3.941,1376
234,3.957,1958
235,3.974,1111
236,3.991,1034
237,4.007,952
238,4.024,1018
239,4.040,1363
240,4.057,1366
241,4.074,1412
242,4.090,1183
243,4.107,1199
244,4.124,1413
245,4.140,1153
246,4.157,1737
247,4.174,1180
248,4.190,1165
249,4.207,1089
250,4.223,1233
251,4.240,1137
252,4.257,1168
253,4.273,1498
254,4.290,1088
255,4.307,1462
256,4.323,1461
257,4.340,1456
258,4.356,1525
259,4.373,973
260,4.390,1271
261,4.406,1274
262,4.423,1129
263,4.440,1719
264,4.456,1015
265,4.473,1065
266,4.490,1236
267,4.506,1288
268,4.523,1259
269,4.539,1509
270,4.556,957
271,4.573,1490
272,4.589,1091
273,4.606,1079
274,4.623,1099
275,4.639,1267
276,4.656,1145
277,4.673,1513
278,4.689,1133
279,4.706,1225
280,4.722,1421
281,4.739,1088
282,4.756,1206
283,4.772,1174
284,4.789,1000
285,4.806,1141
286,4.822,1038
287,4.839,1071
288,4.855,977
289,4.872,1402
290,4.889,1379
291,4.905,832
292,4.922,1096
293,4.939,1066
294,4.955,1392
295,4.972,1048
296,4.989,1003
297,5.005,2027
298,5.022,1621
299,5.038,1809
300,5.055,1339
301,5.072,1220
302,5.088,916
303,5.105,940
304,5.122,1396
305,5.138,1123
306,5.155,1243
307,5.172,1489
308,5.188,1515
309,5.205,967
310,5.221,1567
311,5.238,1387
312,5.255,1060
313,5.271,1056
314,5.288,966
315,5.305,1136
316,5.321,810
317,5.338,1113
318,5.354,1537
319,5.371,1193
320,5.388,1693
321,5.404,1498
322,5.421,804
323,5.438,1099
324,5.454,1525
325,5.471,1373
326,5.488,1193
327,5.504,1182
328,5.521,1497
329,5.537,1252
330,5.554,1628
331,5.571,1125
332,5.587,1200
333,5.604,1328
334,5.621,1597
335,5.637,1318
336,5.654,1457
337,5.670,1032
338,5.687,1368
339,5.704,1459
340,5.720,1477
341,5.737,1195
342,5.754,1287
343,5.770,1439
344,5.787,1181
345,5.804,1264
346,5.820,1398
347,5.837,1252
348,5.853,1311
349,5.870,1331
350,5.887,1183
351,5.903,1688
352,5.920,801
353,5.937,1271
354,5.953,1656
355,5.970,1591
356,5.987,1182
357,6.003,1758
358,6.020,1104
359,6.036,1200
360,6.053,1074
361,6.070,1233
362,6.086,1397
363,6.103,1017
364,6.120,1647
365,6.136,1198
366,6.153,1418
367,6.169,1227
368,6.186,1205
369,6.203,1314
370,6.219,1240
371,6.236,1683
372,6.253,1517
373,6.269,1285
374,6.286,1336
375,6.303,932
376,6.319,1043
377,6.336,1417
378,6.352,1162
379,6.369,1162
380,6.386,1050
381,6.402,1276
382,6.419,964
383,6.436,1033
384,6.452,1078
385,6.469,1200
386,6.486,1214
387,6.502,1543
388,6.519,901
389,6.535,1265
390,6.552,1140
391,6.569,1226
392,6.585,1146
393,6.602,1265
394,6.619,875
395,6.635,1099
396,6.652,1257
397,6.668,1535
398,6.685,1137
399,6.702,1185
400,6.718,1287
401,6.735,948
402,6.752,1584
403,6.768,1451
404,6.785,1320
405,6.802,1037
406,6.818,1529
407,6.835,1186
408,6.851,1345
409,6.868,1474
410,6.885,1117
411,6.901,1159
412,6.918,1402
413,6.935,1178
414,6.951,1418
415,6.968,1415
416,6.985,922
417,7.001,1139
418,7.018,918
419,7.034,735
420,7.051,1164
421,7.068,1488
422,7.084,1255
423,7.101,1295
424,7.118,1209
425,7.134,1762
426,7.151,1574
427,7.167,1154
428,7.184,1103
429,7.201,1196
430,7.217,1080
431,7.234,1311
432,7.251,1401
433,7.267,1921
434,7.284,1066
435,7.301,1069
436,7.317,989
437,7.334,1432
438,7.350,1431
439,7.367,1346
440,7.384,1206
441,7.400,738
442,7.417,1794
443,7.434,1576
444,7.450,999
445,7.467,1304
446,7.484,1301
447,7.500,1133
448,7.517,1252
449,7.533,1226
450,7.550,1128
451,7.567,1862
452,7.583,1179
453,7.600,1277
454,7.617,698
455,7.633,1074
456,7.650,1408
457,7.666,1524
458,7.683,1308
459,7.700,1337
460,7.716,1033
461,7.733,1275
462,7.750,1206
463,7.766,1068
464,7.783,1430
465,7.800,1578
466,7.816,983
467,7.833,973
468,7.849,987
469,7.866,947
470,7.883,966
471,7.899,1507
472,7.916,1161
473,7.933,1151
474,7.949,1403
475,7.966,1215
476,7.983,1579
477,7.999,1560
478,8.016,1476
479,8.032,1333
480,8.049,1130
481,8.066,999
482,8.082,1470
483,8.099,1054
484,8.116,1233
485,8.132,1232
486,8.149,1436
487,8.165,1241
488,8.182,1199
489,8.199,1342
490,8.215,1276
491,8.232,1778
492,8.249,1212
493,8.265,1316
494,8.282,772
495,8.299,1029
496,8.315,1243
497,8.332,1143
498,8.348,1103
499,8.365,1723
500,8.382,1009
501,8.398,1514
502,8.415,1125
503,8.432,1174
504,8.448,1285
505,8.465,1050
506,8.482,1358
507,8.498,856
508,8.515,1408
509,8.531,1227
510,8.548,1303
511,8.565,1029
512,8.581,1304
513,8.598,969
514,8.615,1114
515,8.631,1519
516,8.648,1557
517,8.664,1290
518,8.681,1359
519,8.698,1410
520,8.714,1091
521,8.731,1154
522,8.748,1246
523,8.764,1184
524,8.781,1257
525,8.798,1077
526,8.814,1244
527,8.831,1331
528,8.847,1435
529,8.864,1138
530,8.881,1093
531,8.897,726
532,8.914,1123
533,8.931,1385
534,8.947,1397
535,8.964,1281
536,8.981,1947
537,8.997,1664
538,9.014,1442
539,9.030,994
540,9.047,1320
541,9.064,1496
542,9.080,1430
543,9.097,1383
544,9.114,1752
545,9.130,1141
546,9.147,1269
547,9.163,1636
548,9.180,1421
549,9.197,1652
550,9.213,1030
551,9.230,1271
552,9.247,1419
553,9.263,1246
554,9.280,993
555,9.297,1065
556,9.313,1070
557,9.330,1377
558,9.346,1180
559,9.363,1100
560,9.380,1144
561,9.396,1382
562,9.413,1228
563,9.430,838
564,9.446,1516
565,9.463,1280
566,9.480,1576
567,9.496,1112
568,9.513,1209
569,9.529,1228
570,9.546,1398
571,9.563,1116
572,9.579,1244
573,9.596,1572
574,9.613,1286
575,9.629,1087
576,9.646,994
577,9.663,1240
578,9.679,1462
579,9.696,1299
580,9.712,1263
581,9.729,1242
582,9.746,1331
583,9.762,1471
584,9.779,1174
585,9.796,1028
586,9.812,1524
587,9.829,1734
588,9.846,1111
589,9.862,1299
590,9.879,1766
591,9.895,1060
592,9.912,1078
593,9.929,781
594,9.945,1427
595,9.962,1549
596,9.979,1029
597,9.995,1173
598,10.012,1623
599,10.028,1375
600,10.045,1104
601,10.062,878
602,10.078,1609
603,10.095,1441
604,10.112,1219
605,10.128,1192
606,10.145,1423
607,10.162,1142
608,10.178,1234
609,10.195,1248
610,10.211,1140
611,10.228,1369
612,10.245,1170
613,10.261,1504
614,10.278,845
615,10.295,1424
616,10.311,1107
617,10.328,1202
618,10.345,1937
619,10.361,1085
620,10.378,1797
621,10.394,1127
622,10.411,1178
623,10.428,1334
624,10.444,1498
625,10.461,1522
626,10.478,1106
627,10.494,1232
628,10.511,1251
629,10.527,746
630,10.544,1434
631,10.561,1410
632,10.577,1271
633,10.594,1303
634,10.611,1422
635,10.627,1883
636,10.644,978
637,10.661,936
638,10.677,1233
639,10.694,775
640,10.710,1478
641,10.727,1309
642,10.744,885
643,10.760,991
644,10.777,1060
645,10.794,1297
646,10.810,1133
647,10.827,1301
648,10.844,1365
649,10.860,1140
650,10.877,806
651,10.893,1299
652,10.910,1776
653,10.927,1463
654,10.943,1077
655,10.960,1275
656,10.977,1001
657,10.993,931
658,11.010,1225
659,11.026,1081
660,11.043,1607
661,11.060,1035
662,11.076,1683
663,11.093,1332
664,11.110,1256
665,11.126,1410
666,11.143,1382
667,11.160,1383
668,11.176,1120
669,11.193,985
670,11.209,1727
671,11.226,922
672,11.243,1686
673,11.259,970
674,11.276,1338
675,11.293,1236
676,11.309,1351
677,11.326,1279
678,11.343,1456
679,11.359,1462
680,11.376,1075
681,11.392,1113
682,11.409,1107
683,11.426,1389
684,11.442,1711
685,11.459,1357
686,11.476,1782
687,11.492,1184
688,11.509,1218
689,11.525,959
690,11.542,1448
691,11.559,1165
692,11.575,1385
693,11.592,1474
694,11.609,1007
695,11.625,1223
696,11.642,1594
697,11.659,1062
698,11.675,721
699,11.692,1405
700,11.708,1408
701,11.725,1153
702,11.742,1631
703,11.758,909
704,11.775,1556
705,11.792,1284
706,11.808,975
707,11.825,1099
708,11.842,1078
709,11.858,1476
710,11.875,1004
711,11.891,1287
712,11.908,969
713,11.925,1124
714,11.941,1359
715,11.958,746
716,11.975,1062
717,11.991,979
718,12.008,1079
719,12.024,1205
720,12.041,1159
721,12.058,2017
722,12.074,1167
723,12.091,836
724,12.108,1484
725,12.124,1614
726,12.141,1030
727,12.158,1546
728,12.174,1162
729,12.191,1361
730,12.207,1390
731,12.224,1700
732,12.241,1094
733,12.257,1160
734,12.274,1012
735,12.291,1485
736,12.307,1513
737,12.324,1817
738,12.341,984
739,12.357,1188
740,12.374,1588
741,12.390,1521
742,12.407,940
743,12.424,1286
744,12.440,1092
745,12.457,1207
746,12.474,1558
747,12.490,1463
748,12.507,914
749,12.523,883
750,12.540,975
751,12.557,1921
752,12.573,1219
753,12.590,1408
754,12.607,1444
755,12.623,1178
756,12.640,1311
757,12.657,1504
758,12.673,1263
759,12.690,1172
760,12.706,875
761,12.723,1052
762,12.740,1275
763,12.756,1181
764,12.773,1076
765,12.790,942
766,12.806,1244
767,12.823,1098
768,12.839,1099
769,12.856,1671
770,12.873,1401
771,12.889,1436
772,12.906,1256
773,12.923,1049
774,12.939,1459
775,12.956,1197
776,12.973,1326
777,12.989,1599
778,13.006,1376
779,13.022,1264
780,13.039,785
781,13.056,1110
782,13.072,1423
783,13.089,1672
784,13.106,1192
785,13.122,1368
786,13.139,1136
787,13.156,1082
788,13.172,1772
789,13.189,1417
790,13.205,1153
791,13.222,1326
792,13.239,1672
793,13.255,1323
794,13.272,1751
795,13.289,883
796,13.305,1582
797,13.322,1071
798,13.338,1512
799,13.355,1015
800,13.372,1220
801,13.388,1570
802,13.405,1047
803,13.422,1104
804,13.438,1278
805,13.455,844
806,13.472,1776
807,13.488,1352
808,13.505,1560
809,13.521,1535
810,13.538,887
811,13.555,1295
812,13.571,1513
813,13.588,1348
814,13.605,1387
815,13.621,1364
816,13.638,1117
817,13.655,1073
818,13.671,1085
819,13.688,1332
820,13.704,1232
821,13.721,1404
822,13.738,1261
823,13.754,1291
824,13.771,1137
825,13.788,916
826,13.804,968
827,13.821,895
828,13.837,1151
829,13.854,997
830,13.871,1252
831,13.887,1311
832,13.904,1325
833,13.921,1230
834,13.937,1214
835,13.954,807
836,13.971,1133
837,13.987,1125
838,14.004,1642
839,14.020,796
840,14.037,1191
841,14.054,745
842,14.070,1247
843,14.087,944
844,14.104,882
845,14.120,1551
846,14.137,1070
847,14.154,1313
848,14.170,1562
849,14.187,1237
850,14.203,929
851,14.220,979
852,14.237,1293
853,14.253,1362
854,14.270,1167
855,14.287,828
856,14.303,1338
857,14.320,925
858,14.336,1166
859,14.353,1026
860,14.370,1304
861,14.386,950
862,14.403,1344
863,14.420,1293
864,14.436,1579
865,14.453,1212
866,14.470,1844
867,14.486,1080
868,14.503,1681
869,14.519,1735
870,14.536,1486
871,14.553,1738
872,14.569,1605
873,14.586,1293
874,14.603,950
875,14.619,1368
876,14.636,1195
877,14.653,1437
878,14.669,1058
879,14.686,1021
880,14.702,2009
881,14.719,1113
882,14.736,1818
883,14.752,1860
884,14.769,1256
885,14.786,1244
886,14.802,1712
887,14.819,1331
888,14.835,1130
889,14.852,1121
890,14.869,1045
891,14.885,1134
892,14.902,1448
893,14.919,1041
894,14.935,1947
895,14.952,1668
896,14.969,1209
897,14.985,1132
898,15.002,1204
899,15.018,1586
900,15.035,744
901,15.052,1557
902,15.068,1514
903,15.085,1587
904,15.102,1383
905,15.118,1155
906,15.135,1125
907,15.152,1312
908,15.168,1832
909,15.185,1526
910,15.201,1427
911,15.218,1466
912,15.235,1329
913,15.251,1087
914,15.268,1903
915,15.285,1079
916,15.301,1316
917,15.318,970
918,15.334,1470
919,15.351,1130
920,15.368,1472
921,15.384,1604
922,15.401,1612
923,15.418,1145
924,15.434,1419
925,15.451,1568
926,15.468,1394
927,15.484,1160
928,15.501,1233
929,15.517,1664
930,15.534,1308
931,15.551,1403
932,15.567,2027
933,15.584,1427
934,15.601,1672
935,15.617,1539
936,15.634,1418
937,15.651,1375
938,15.667,1315
939,15.684,1008
940,15.700,1800
941,15.717,1481
942,15.734,1607
943,15.750,1224
944,15.767,1563
945,15.784,1201
946,15.800,1497
947,15.817,1259
948,15.833,1248
949,15.850,1468
950,15.867,1660
951,15.883,1434
952,15.900,1270
953,15.917,1319
954,15.933,2082
955,15.950,1477
956,15.967,1389
957,15.983,1371
958,16.000,1254
959,16.016,1583
960,16.033,1134
961,16.050,1361
962,16.066,1608
963,16.083,1611
964,16.100,1659
965,16.116,975
966,16.133,1320
967,16.150,1430
968,16.166,1488
969,16.183,1154
970,16.199,1330
971,16.216,1236
972,16.233,1045
973,16.249,1403
974,16.266,1305
975,16.283,1371
976,16.299,1256
977,16.316,1504
978,16.332,1647
979,16.349,1501
980,16.366,1962
981,16.382,2159
982,16.399,2689
983,16.416,2513
984,16.432,3271
985,16.449,3558
986,16.466,3639
987,16.482,3754
988,16.499,4165
989,16.515,4555
990,16.532,4694
991,16.549,4362
992,16.565,4941
993,16.582,5441
994,16.599,5031
995,16.615,5470
996,16.632,5460
997,16.649,6618
998,16.665,5896
999,16.682,6438
1000,16.698,6156
1001,16.715,6318
1002,16.732,6754
1003,16.748,7077
1004,16.765,7381
1005,16.782,7661
1006,16.798,7758
1007,16.815,7726
1008,16.831,7628
1009,16.848,7899
1010,16.865,8806
1011,16.881,7531
1012,16.898,7266
1013,16.915,7292
1014,16.931,7217
1015,16.948,6965
1016,16.965,7124
1017,16.981,6791
1018,16.998,6994
1019,17.014,6329
1020,17.031,7596
1021,17.048,6722
1022,17.064,6337
1023,17.081,6060
1024,17.098,5857
1025,17.114,5551
1026,17.131,5624
1027,17.148,5326
1028,17.164,5294
1029,17.181,4999
1030,17.197,6081
1031,17.214,10833
1032,17.231,17295
1033,17.247,25061
1034,17.264,34427
1035,17.281,44402
1036,17.297,56063
1037,17.314,74508
1038,17.331,90011
1039,17.347,107774
1040,17.364,130840
1041,17.380,145487
1042,17.397,159632
1043,17.414,180419
1044,17.430,202859
1045,17.447,214662
1046,17.464,229600
1047,17.480,252217
1048,17.497,257973
1049,17.514,270171
1050,17.530,273280
1051,17.547,280368
1052,17.563,291117
1053,17.580,291119
1054,17.597,298463
1055,17.613,308077
1056,17.630,301329
1057,17.647,309716
1058,17.663,323607
1059,17.680,323384
1060,17.696,316736
1061,17.713,306430
1062,17.730,297763
1063,17.746,271972
1064,17.763,257009
1065,17.780,229372
1066,17.796,207316
1067,17.813,186907
1068,17.830,156680
1069,17.846,134108
1070,17.863,118374
1071,17.879,97502
1072,17.896,78247
1073,17.913,66498
1074,17.929,54245
1075,17.946,46868
1076,17.963,41111
1077,17.979,34627
1078,17.996,28096
1079,18.013,25062
1080,18.029,22874
1081,18.046,21196
1082,18.062,17882
1083,18.079,14246
1084,18.096,14243
1085,18.112,12577
1086,18.129,11901
1087,18.146,12073
1088,18.162,10508
1089,18.179,11763
1090,18.195,9109
1091,18.212,9820
1092,18.229,8424
1093,18.245,8788
1094,18.262,8335
1095,18.279,7641
1096,18.295,7664
1097,18.312,5837
1098,18.329,6624
1099,18.345,7270
1100,18.362,7655
1101,18.378,7348
1102,18.395,7790
1103,18.412,7115
1104,18.428,8730
1105,18.445,7579
1106,18.462,7493
1107,18.478,7358
1108,18.495,7732
1109,18.512,9822
1110,18.528,8386
1111,18.545,10000
1112,18.561,8774
1113,18.578,9231
1114,18.595,9522
1115,18.611,8745
1116,18.628,10683
1117,18.645,10297
1118,18.661,10406
1119,18.678,10781
1120,18.694,9268
1121,18.711,10368
1122,18.728,8789
1123,18.744,10082
1124,18.761,8886
1125,18.778,10057
1126,18.794,13207
1127,18.811,17353
1128,18.828,19563
1129,18.844,24360
1130,18.861,28729
1131,18.877,32857
1132,18.894,36472
1133,18.911,39200
1134,18.927,47741
1135,18.944,46944
1136,18.961,50516
1137,18.977,51318
1138,18.994,57029
1139,19.011,63213
1140,19.027,57510
1141,19.044,60518
1142,19.060,62343
1143,19.077,57974
1144,19.094,65482
1145,19.110,64167
1146,19.127,66669
1147,19.144,61929
1148,19.160,63514
1149,19.177,71355
1150,19.193,64879
1151,19.210,63929
1152,19.227,59619
1153,19.243,63106
1154,19.260,63791
1155,19.277,66301
1156,19.293,63268
1157,19.310,65826
1158,19.327,62622
1159,19.343,57069
1160,19.360,57928
1161,19.376,59149
1162,19.393,56486
1163,19.410,53023
1164,19.426,50184
1165,19.443,42610
1166,19.460,41478
1167,19.476,34904
1168,19.493,34448
1169,19.510,33381
1170,19.526,26390
1171,19.543,26139
1172,19.559,23022
1173,19.576,21249
1174,19.593,19733
1175,19.609,16926
1176,19.626,15217
1177,19.643,13904
1178,19.659,11235
1179,19.676,10253
1180,19.692,7581
1181,19.709,6898
1182,19.726,7026
1183,19.742,5489
1184,19.759,5483
1185,19.776,5141
1186,19.792,4636
1187,19.809,3654
1188,19.826,3458
1189,19.842,4249
1190,19.859,3593
1191,19.875,3458
1192,19.892,3824
1193,19.909,2448
1194,19.925,2224
1195,19.942,2488
1196,19.959,2735
1197,19.975,2092
1198,19.992,2756
1199,20.008,1898
1200,20.025,1536
1201,20.042,2381
1202,20.058,1731
1203,20.075,1494
1204,20.092,1849
1205,20.108,1510
1206,20.125,1551
1207,20.142,1378
1208,20.158,1858
1209,20.175,1219
1210,20.191,1367
1211,20.208,1655
1212,20.225,1408
1213,20.241,1293
1214,20.258,1406
1215,20.275,1026
1216,20.291,1561
1217,20.308,1256
1218,20.325,1429
1219,20.341,1364
1220,20.358,1517
1221,20.374,1154
1222,20.391,1492
1223,20.408,1224
1224,20.424,1318
1225,20.441,1138
1226,20.458,1067
1227,20.474,1118
1228,20.491,1400
1229,20.507,1277
1230,20.524,1194
1231,20.541,1373
1232,20.557,1257
1233,20.574,1441
1234,20.591,1409
1235,20.607,1449
1236,20.624,1662
1237,20.641,1478
1238,20.657,1516
1239,20.674,1400
1240,20.690,2156
1241,20.707,2229
1242,20.724,2204
1243,20.740,3218
1244,20.757,3558
1245,20.774,5382
1246,20.790,6969
1247,20.807,10638
1248,20.824,11233
1249,20.840,17824
1250,20.857,17601
1251,20.873,22138
1252,20.890,26172
1253,20.907,28955
1254,20.923,31527
1255,20.940,34262
1256,20.957,36815
1257,20.973,40415
1258,20.990,41569
1259,21.006,43441
1260,21.023,45273
1261,21.040,43366
1262,21.056,43650
1263,21.073,42796
1264,21.090,41580
1265,21.106,45128
1266,21.123,40461
1267,21.140,43019
1268,21.156,43558
1269,21.173,44074
