#"+ BPC Scan stir_75um_sp-r019.d "
#Point,X(Minutes),Y(Counts)
0,0.052,981
1,0.069,731
2,0.085,1506
3,0.102,742
4,0.119,930
5,0.135,645
6,0.152,1315
7,0.169,1324
8,0.185,1299
9,0.202,1047
10,0.218,802
11,0.235,1021
12,0.252,677
13,0.268,1129
14,0.285,1270
15,0.302,1069
16,0.318,812
17,0.335,1335
18,0.352,1129
19,0.368,944
20,0.385,1356
21,0.401,1257
22,0.418,916
23,0.435,849
24,0.451,972
25,0.468,948
26,0.485,1004
27,0.501,1046
28,0.518,1574
29,0.535,1031
30,0.551,909
31,0.568,682
32,0.584,946
33,0.601,800
34,0.618,802
35,0.634,994
36,0.651,718
37,0.668,1051
38,0.684,979
39,0.701,1224
40,0.717,743
41,0.734,717
42,0.751,598
43,0.767,1499
44,0.784,1243
45,0.801,1305
46,0.817,1011
47,0.834,966
48,0.851,1001
49,0.867,1201
50,0.884,1562
51,0.900,1185
52,0.917,821
53,0.934,1285
54,0.950,1006
55,0.967,1084
56,0.984,932
57,1.000,1112
58,1.017,1057
59,1.034,1108
60,1.050,1104
61,1.067,1304
62,1.083,1240
63,1.100,1390
64,1.117,786
65,1.133,1616
66,1.150,1384
67,1.167,966
68,1.183,1188
69,1.200,938
70,1.216,1009
71,1.233,844
72,1.250,1674
73,1.266,821
74,1.283,621
75,1.300,591
76,1.316,910
77,1.333,1261
78,1.350,1232
79,1.366,789
80,1.383,1056
81,1.399,995
82,1.416,1033
83,1.433,859
84,1.449,757
85,1.466,862
86,1.483,758
87,1.499,1396
88,1.516,816
89,1.533,1082
90,1.549,1150
91,1.566,1233
92,1.582,1174
93,1.599,879
94,1.616,1376
95,1.632,1006
96,1.649,951
97,1.666,1519
98,1.682,1209
99,1.699,933
100,1.715,1384
101,1.732,645
102,1.749,1092
103,1.765,1289
104,1.782,1053
105,1.799,983
106,1.815,930
107,1.832,1470
108,1.849,938
109,1.865,1104
110,1.882,783
111,1.898,731
112,1.915,1012
113,1.932,1218
114,1.948,1053
115,1.965,1143
116,1.982,1796
117,1.998,1256
118,2.015,711
119,2.032,810
120,2.048,1047
121,2.065,1116
122,2.081,1079
123,2.098,791
124,2.115,1410
125,2.131,1278
126,2.148,1278
127,2.165,903
128,2.181,771
129,2.198,808
130,2.214,825
131,2.231,1122
132,2.248,1042
133,2.264,856
134,2.281,660
135,2.298,1151
136,2.314,1028
137,2.331,1076
138,2.348,1235
139,2.364,958
140,2.381,904
141,2.397,1018
142,2.414,918
143,2.431,778
144,2.447,874
145,2.464,1155
146,2.481,995
147,2.497,1147
148,2.514,884
149,2.531,1460
150,2.547,1035
151,2.564,1095
152,2.580,840
153,2.597,1310
154,2.614,861
155,2.630,1055
156,2.647,1162
157,2.664,1156
158,2.680,864
159,2.697,900
160,2.713,1098
161,2.730,1216
162,2.747,896
163,2.763,891
164,2.780,1164
165,2.797,904
166,2.813,1298
167,2.830,1275
168,2.847,681
169,2.863,1133
170,2.880,1352
171,2.896,898
172,2.913,896
173,2.930,1042
174,2.946,734
175,2.963,907
176,2.980,1250
177,2.996,1173
178,3.013,1188
179,3.029,865
180,3.046,894
181,3.063,709
182,3.079,903
183,3.096,751
184,3.113,890
185,3.129,800
186,3.146,1160
187,3.163,841
188,3.179,1192
189,3.196,1042
190,3.212,913
191,3.229,888
192,3.246,741
193,3.262,818
194,3.279,1440
195,3.296,734
196,3.312,923
197,3.329,1075
198,3.346,1358
199,3.362,881
200,3.379,1581
201,3.395,1029
202,3.412,988
203,3.429,898
204,3.445,1377
205,3.462,1161
206,3.479,1054
207,3.495,1208
208,3.512,1178
209,3.528,1183
210,3.545,1500
211,3.562,1525
212,3.578,1325
213,3.595,1055
214,3.612,1282
215,3.628,1178
216,3.645,1183
217,3.662,1083
218,3.678,827
219,3.695,1283
220,3.712,1183
221,3.728,1724
222,3.745,1741
223,3.761,1114
224,3.778,1175
225,3.795,1106
226,3.811,1222
227,3.828,1425
228,3.845,937
229,3.861,913
230,3.878,1509
231,3.894,842
232,3.911,1091
233,3.928,816
234,3.944,1030
235,3.961,808
236,3.978,817
237,3.994,990
238,4.011,746
239,4.028,1122
240,4.044,847
241,4.061,1018
242,4.077,825
243,4.094,1049
244,4.111,1173
245,4.127,1125
246,4.144,890
247,4.161,907
248,4.177,1228
249,4.194,1116
250,4.211,829
251,4.227,891
252,4.244,1108
253,4.260,1093
254,4.277,855
255,4.294,987
256,4.310,875
257,4.327,1006
258,4.344,1039
259,4.360,1321
260,4.377,955
261,4.393,852
262,4.410,1097
263,4.427,1342
264,4.443,945
265,4.460,1435
266,4.477,1024
267,4.493,1531
268,4.510,1344
269,4.527,1007
270,4.543,1277
271,4.560,1047
272,4.576,1399
273,4.593,1212
274,4.610,1384
275,4.626,1268
276,4.643,937
277,4.660,1096
278,4.676,1524
279,4.693,1045
280,4.710,1019
281,4.726,987
282,4.743,915
283,4.759,1647
284,4.776,1721
285,4.793,993
286,4.809,1732
287,4.826,1019
288,4.843,896
289,4.859,889
290,4.876,1196
291,4.892,1030
292,4.909,1998
293,4.926,1257
294,4.942,1536
295,4.959,889
296,4.976,1205
297,4.992,1069
298,5.009,903
299,5.026,901
300,5.042,1222
301,5.059,902
302,5.075,1116
303,5.092,922
304,5.109,645
305,5.125,932
306,5.142,1483
307,5.159,1057
308,5.175,849
309,5.192,909
310,5.209,917
311,5.225,866
312,5.242,1212
313,5.258,1110
314,5.275,1196
315,5.292,1526
316,5.308,693
317,5.325,1001
318,5.342,1442
319,5.358,1017
320,5.375,833
321,5.391,1088
322,5.408,997
323,5.425,711
324,5.441,827
325,5.458,1088
326,5.475,1134
327,5.491,1117
328,5.508,1008
329,5.525,1286
330,5.541,1158
331,5.558,1152
332,5.574,900
333,5.591,978
334,5.608,1072
335,5.624,751
336,5.641,904
337,5.658,853
338,5.674,745
339,5.691,962
340,5.708,1059
341,5.724,1066
342,5.741,1468
343,5.757,1130
344,5.774,1276
345,5.791,1126
346,5.807,1048
347,5.824,1114
348,5.841,1000
349,5.857,1023
350,5.874,1012
351,5.890,1333
352,5.907,1248
353,5.924,747
354,5.940,966
355,5.957,873
356,5.974,1129
357,5.990,939
358,6.007,1410
359,6.024,1111
360,6.040,903
361,6.057,1121
362,6.073,1206
363,6.090,862
364,6.107,1070
365,6.123,981
366,6.140,1236
367,6.157,989
368,6.173,1163
369,6.190,1143
370,6.207,1121
371,6.223,1139
372,6.240,839
373,6.256,1242
374,6.273,731
375,6.290,1406
376,6.306,1253
377,6.323,1233
378,6.340,1115
379,6.356,1190
380,6.373,1504
381,6.389,991
382,6.406,1153
383,6.423,801
384,6.439,1091
385,6.456,704
386,6.473,1230
387,6.489,1366
388,6.506,1294
389,6.523,1166
390,6.539,1280
391,6.556,1641
392,6.572,830
393,6.589,883
394,6.606,1217
395,6.622,761
396,6.639,1310
397,6.656,937
398,6.672,1170
399,6.689,1255
400,6.706,1069
401,6.722,1444
402,6.739,1089
403,6.755,1112
404,6.772,1286
405,6.789,1151
406,6.805,1124
407,6.822,1165
408,6.839,901
409,6.855,769
410,6.872,1140
411,6.888,1251
412,6.905,1150
413,6.922,774
414,6.938,930
415,6.955,1136
416,6.972,1337
417,6.988,1028
418,7.005,1160
419,7.022,1484
420,7.038,1175
421,7.055,1165
422,7.071,1011
423,7.088,1350
424,7.105,728
425,7.121,1159
426,7.138,953
427,7.155,954
428,7.171,989
429,7.188,939
430,7.205,1390
431,7.221,927
432,7.238,1374
433,7.254,1183
434,7.271,1025
435,7.288,886
436,7.304,1367
437,7.321,1233
438,7.338,1083
439,7.354,1263
440,7.371,1132
441,7.387,921
442,7.404,781
443,7.421,847
444,7.437,1089
445,7.454,1131
446,7.471,1280
447,7.487,958
448,7.504,1744
449,7.521,1065
450,7.537,951
451,7.554,1016
452,7.570,1023
453,7.587,1474
454,7.604,1177
455,7.620,937
456,7.637,840
457,7.654,937
458,7.670,1274
459,7.687,994
460,7.704,1132
461,7.720,1219
462,7.737,782
463,7.753,994
464,7.770,1242
465,7.787,1093
466,7.803,1184
467,7.820,1599
468,7.837,1074
469,7.853,1241
470,7.870,977
471,7.886,820
472,7.903,1191
473,7.920,982
474,7.936,1217
475,7.953,1084
476,7.970,1001
477,7.986,884
478,8.003,1309
479,8.020,1178
480,8.036,1086
481,8.053,895
482,8.069,789
483,8.086,867
484,8.103,732
485,8.119,1395
486,8.136,1468
487,8.153,1224
488,8.169,717
489,8.186,1169
490,8.203,1789
491,8.219,990
492,8.236,1250
493,8.252,1042
494,8.269,1626
495,8.286,998
496,8.302,671
497,8.319,961
498,8.336,930
499,8.352,804
500,8.369,1181
501,8.385,972
502,8.402,818
503,8.419,1207
504,8.435,1019
505,8.452,1037
506,8.469,1019
507,8.485,839
508,8.502,1073
509,8.519,848
510,8.535,963
511,8.552,722
512,8.568,1230
513,8.585,1060
514,8.602,847
515,8.618,817
516,8.635,1018
517,8.652,883
518,8.668,1190
519,8.685,707
520,8.702,1120
521,8.718,1296
522,8.735,919
523,8.751,910
524,8.768,1530
525,8.785,1250
526,8.801,947
527,8.818,1037
528,8.835,1070
529,8.851,955
530,8.868,792
531,8.884,1330
532,8.901,871
533,8.918,1346
534,8.934,1384
535,8.951,1207
536,8.968,1355
537,8.984,688
538,9.001,966
539,9.018,1016
540,9.034,1371
541,9.051,884
542,9.067,1011
543,9.084,960
544,9.101,1034
545,9.117,1034
546,9.134,1167
547,9.151,1152
548,9.167,1063
549,9.184,737
550,9.201,1132
551,9.217,855
552,9.234,1251
553,9.250,1004
554,9.267,948
555,9.284,848
556,9.300,1125
557,9.317,1265
558,9.334,783
559,9.350,1641
560,9.367,833
561,9.383,1023
562,9.400,1326
563,9.417,917
564,9.433,1198
565,9.450,1007
566,9.467,1034
567,9.483,1004
568,9.500,846
569,9.517,1014
570,9.533,1240
571,9.550,1246
572,9.566,692
573,9.583,774
574,9.600,1084
575,9.616,1124
576,9.633,1203
577,9.650,1223
578,9.666,865
579,9.683,1116
580,9.699,938
581,9.716,1186
582,9.733,1387
583,9.749,861
584,9.766,1161
585,9.783,765
586,9.799,1243
587,9.816,1291
588,9.833,515
589,9.849,1270
590,9.866,914
591,9.882,942
592,9.899,692
593,9.916,1063
594,9.932,1054
595,9.949,851
596,9.966,1098
597,9.982,1009
598,9.999,1587
599,10.016,1687
600,10.032,664
601,10.049,993
602,10.065,582
603,10.082,864
604,10.099,1222
605,10.115,1253
606,10.132,827
607,10.149,1136
608,10.165,1299
609,10.182,941
610,10.198,1162
611,10.215,842
612,10.232,997
613,10.248,931
614,10.265,919
615,10.282,1246
616,10.298,975
617,10.315,1031
618,10.332,1320
619,10.348,1757
620,10.365,1286
621,10.381,1521
622,10.398,1199
623,10.415,1251
624,10.431,858
625,10.448,970
626,10.465,1054
627,10.481,1191
628,10.498,1306
629,10.515,768
630,10.531,1236
631,10.548,943
632,10.564,1049
633,10.581,1728
634,10.598,1162
635,10.614,1342
636,10.631,1283
637,10.648,1405
638,10.664,927
639,10.681,946
640,10.697,1192
641,10.714,919
642,10.731,1022
643,10.747,992
644,10.764,1062
645,10.781,887
646,10.797,1022
647,10.814,977
648,10.831,1307
649,10.847,1235
650,10.864,1385
651,10.880,948
652,10.897,1178
653,10.914,1003
654,10.930,1061
655,10.947,1001
656,10.964,1217
657,10.980,1028
658,10.997,1498
659,11.014,1033
660,11.030,895
661,11.047,1566
662,11.063,1329
663,11.080,960
664,11.097,1166
665,11.113,1224
666,11.130,1011
667,11.147,909
668,11.163,852
669,11.180,1592
670,11.196,939
671,11.213,1009
672,11.230,936
673,11.246,1102
674,11.263,840
675,11.280,1101
676,11.296,877
677,11.313,786
678,11.330,1036
679,11.346,1027
680,11.363,1259
681,11.380,1333
682,11.396,1052
683,11.413,1135
684,11.429,1215
685,11.446,1391
686,11.463,1098
687,11.479,1229
688,11.496,687
689,11.513,965
690,11.529,1122
691,11.546,1303
692,11.562,1259
693,11.579,861
694,11.596,867
695,11.612,1144
696,11.629,1622
697,11.646,988
698,11.662,1029
699,11.679,1170
700,11.696,1129
701,11.712,955
702,11.729,891
703,11.745,944
704,11.762,1065
705,11.779,1064
706,11.795,696
707,11.812,998
708,11.829,1028
709,11.845,1092
710,11.862,1151
711,11.879,850
712,11.895,969
713,11.912,1145
714,11.928,1500
715,11.945,1297
716,11.962,1140
717,11.978,1409
718,11.995,1315
719,12.012,948
720,12.028,893
721,12.045,1014
722,12.061,1128
723,12.078,720
724,12.095,738
725,12.111,1722
726,12.128,785
727,12.145,1215
728,12.161,878
729,12.178,899
730,12.195,1084
731,12.211,1102
732,12.228,917
733,12.244,1107
734,12.261,1402
735,12.278,1064
736,12.294,1244
737,12.311,1477
738,12.328,1242
739,12.344,1399
740,12.361,808
741,12.378,1095
742,12.394,943
743,12.411,1437
744,12.427,1001
745,12.444,955
746,12.461,974
747,12.477,1539
748,12.494,1039
749,12.511,1459
750,12.527,727
751,12.544,897
752,12.560,1186
753,12.577,1522
754,12.594,1161
755,12.610,900
756,12.627,1202
757,12.644,1473
758,12.660,1153
759,12.677,932
760,12.694,1002
761,12.710,1277
762,12.727,1008
763,12.743,834
764,12.760,1387
765,12.777,910
766,12.793,1014
767,12.810,1246
768,12.827,864
769,12.843,1355
770,12.860,1045
771,12.877,1121
772,12.893,934
773,12.910,992
774,12.926,2099
775,12.943,1008
776,12.960,757
777,12.976,942
778,12.993,2287
779,13.010,1115
780,13.026,1013
781,13.043,1115
782,13.059,858
783,13.076,1254
784,13.093,1022
785,13.109,1609
786,13.126,1011
787,13.143,1175
788,13.159,790
789,13.176,1358
790,13.193,1015
791,13.209,1270
792,13.226,740
793,13.242,1233
794,13.259,1097
795,13.276,1487
796,13.292,1302
797,13.309,1070
798,13.326,1107
799,13.342,1249
800,13.359,1134
801,13.376,1341
802,13.392,957
803,13.409,1320
804,13.425,1192
805,13.442,1146
806,13.459,822
807,13.475,934
808,13.492,1208
809,13.509,998
810,13.525,1020
811,13.542,1067
812,13.558,1671
813,13.575,1044
814,13.592,1482
815,13.608,992
816,13.625,1253
817,13.642,1460
818,13.658,1245
819,13.675,1490
820,13.692,972
821,13.708,1125
822,13.725,1157
823,13.741,1053
824,13.758,1207
825,13.775,1058
826,13.791,1384
827,13.808,1043
828,13.825,990
829,13.841,1449
830,13.858,1290
831,13.875,956
832,13.891,1010
833,13.908,911
834,13.924,1113
835,13.941,1093
836,13.958,908
837,13.974,1363
838,13.991,1400
839,14.008,1110
840,14.024,987
841,14.041,1046
842,14.057,861
843,14.074,857
844,14.091,1747
845,14.107,915
846,14.124,1196
847,14.141,1336
848,14.157,969
849,14.174,993
850,14.191,1247
851,14.207,1287
852,14.224,952
853,14.240,1426
854,14.257,802
855,14.274,815
856,14.290,1161
857,14.307,971
858,14.324,861
859,14.340,1135
860,14.357,804
861,14.374,866
862,14.390,849
863,14.407,828
864,14.423,846
865,14.440,1204
866,14.457,1168
867,14.473,936
868,14.490,811
869,14.507,1325
870,14.523,1192
871,14.540,1002
872,14.556,955
873,14.573,1154
874,14.590,1667
875,14.606,1155
876,14.623,855
877,14.640,877
878,14.656,690
879,14.673,1261
880,14.690,670
881,14.706,1798
882,14.723,1007
883,14.739,1103
884,14.756,1045
885,14.773,1113
886,14.789,1381
887,14.806,701
888,14.823,1046
889,14.839,1289
890,14.856,1463
891,14.873,792
892,14.889,1636
893,14.906,1170
894,14.922,891
895,14.939,1249
896,14.956,1188
897,14.972,1165
898,14.989,1376
899,15.006,1000
900,15.022,1315
901,15.039,1436
902,15.055,1064
903,15.072,1389
904,15.089,1592
905,15.105,1394
906,15.122,856
907,15.139,951
908,15.155,1153
909,15.172,944
910,15.189,944
911,15.205,1298
912,15.222,1116
913,15.238,980
914,15.255,1045
915,15.272,1330
916,15.288,962
917,15.305,1452
918,15.322,921
919,15.338,1841
920,15.355,1493
921,15.372,865
922,15.388,1402
923,15.405,1520
924,15.421,953
925,15.438,909
926,15.455,990
927,15.471,1270
928,15.488,1033
929,15.505,924
930,15.521,1056
931,15.538,1253
932,15.554,1201
933,15.571,1152
934,15.588,853
935,15.604,1443
936,15.621,1116
937,15.638,1202
938,15.654,1294
939,15.671,1259
940,15.688,1134
941,15.704,1370
942,15.721,978
943,15.737,1028
944,15.754,1227
945,15.771,1065
946,15.787,978
947,15.804,1434
948,15.821,1830
949,15.837,1495
950,15.854,1023
951,15.871,1043
952,15.887,1093
953,15.904,935
954,15.920,1370
955,15.937,954
956,15.954,1395
957,15.970,883
958,15.987,1135
959,16.004,1084
960,16.020,1422
961,16.037,1566
962,16.053,1198
963,16.070,1548
964,16.087,1143
965,16.103,984
966,16.120,995
967,16.137,783
968,16.153,1386
969,16.170,1269
970,16.187,1048
971,16.203,871
972,16.220,1668
973,16.236,1178
974,16.253,1386
975,16.270,1325
976,16.286,1636
977,16.303,825
978,16.320,1626
979,16.336,1186
980,16.353,893
981,16.369,1121
982,16.386,1115
983,16.403,1433
984,16.419,1079
985,16.436,1405
986,16.453,1109
987,16.469,1615
988,16.486,1675
989,16.503,1127
990,16.519,1298
991,16.536,1804
992,16.552,1282
993,16.569,1532
994,16.586,1640
995,16.602,2305
996,16.619,2565
997,16.636,2556
998,16.652,3086
999,16.669,3705
1000,16.686,3758
1001,16.702,4250
1002,16.719,4317
1003,16.735,4960
1004,16.752,4509
1005,16.769,5018
1006,16.785,6027
1007,16.802,5152
1008,16.819,5247
1009,16.835,5222
1010,16.852,5569
1011,16.868,5988
1012,16.885,6223
1013,16.902,6555
1014,16.918,6383
1015,16.935,6453
1016,16.952,6866
1017,16.968,7073
1018,16.985,7218
1019,17.002,7389
1020,17.018,8331
1021,17.035,7690
1022,17.051,7755
1023,17.068,8563
1024,17.085,8193
1025,17.101,7947
1026,17.118,8078
1027,17.135,7847
1028,17.151,7780
1029,17.168,7836
1030,17.185,7313
1031,17.201,7084
1032,17.218,7714
1033,17.234,6858
1034,17.251,6919
1035,17.268,6712
1036,17.284,7240
1037,17.301,6374
1038,17.318,6250
1039,17.334,6778
1040,17.351,6409
1041,17.367,5945
1042,17.384,5992
1043,17.401,6416
1044,17.417,5926
1045,17.434,5165
1046,17.451,5621
1047,17.467,4837
1048,17.484,7870
1049,17.501,10735
1050,17.517,16600
1051,17.534,24141
1052,17.550,36442
1053,17.567,45638
1054,17.584,60567
1055,17.600,64231
1056,17.617,87486
1057,17.634,101661
1058,17.650,123087
1059,17.667,143415
1060,17.684,139610
1061,17.700,169751
1062,17.717,191196
1063,17.733,209554
1064,17.750,221204
1065,17.767,225508
1066,17.783,250117
1067,17.800,248058
1068,17.817,272778
1069,17.833,264777
1070,17.850,266412
1071,17.866,300691
1072,17.883,298703
1073,17.900,287948
1074,17.916,290705
1075,17.933,295808
1076,17.950,304193
1077,17.966,320641
1078,17.983,299245
1079,18.000,257130
1080,18.016,242019
1081,18.033,241471
1082,18.049,212193
1083,18.066,196820
1084,18.083,172528
1085,18.099,168080
1086,18.116,137093
1087,18.133,120826
1088,18.149,113087
1089,18.166,96585
1090,18.183,79846
1091,18.199,62763
1092,18.216,53441
1093,18.232,44748
1094,18.249,41340
1095,18.266,35281
1096,18.282,32092
1097,18.299,25015
1098,18.316,22666
1099,18.332,18047
1100,18.349,16644
1101,18.365,16313
1102,18.382,16173
1103,18.399,13502
1104,18.415,12858
1105,18.432,14085
1106,18.449,12299
1107,18.465,9309
1108,18.482,9869
1109,18.499,8455
1110,18.515,8420
1111,18.532,6914
1112,18.548,8682
1113,18.565,7384
1114,18.582,7057
1115,18.598,6657
1116,18.615,6338
1117,18.632,6120
1118,18.648,6339
1119,18.665,6706
1120,18.682,7256
1121,18.698,7338
1122,18.715,7265
1123,18.731,7047
1124,18.748,6206
1125,18.765,6153
1126,18.781,7333
1127,18.798,7554
1128,18.815,6249
1129,18.831,6780
1130,18.848,7727
1131,18.864,8124
1132,18.881,8854
1133,18.898,8763
1134,18.914,7887
1135,18.931,8523
1136,18.948,9809
1137,18.964,7949
1138,18.981,8926
1139,18.998,9127
1140,19.014,8215
1141,19.031,8556
1142,19.048,10604
1143,19.064,8306
1144,19.081,8214
1145,19.097,8516
1146,19.114,7523
1147,19.131,9303
1148,19.147,7279
1149,19.164,8477
1150,19.181,8532
1151,19.197,9910
1152,19.214,11857
1153,19.230,18601
1154,19.247,20598
1155,19.264,26197
1156,19.280,21588
1157,19.297,33731
1158,19.314,35567
1159,19.330,39427
1160,19.347,40680
1161,19.364,40177
1162,19.380,34778
1163,19.397,36373
1164,19.413,35933
1165,19.430,43974
1166,19.447,41730
1167,19.463,39373
1168,19.480,41880
1169,19.497,38957
1170,19.513,40757
1171,19.530,42728
1172,19.547,42566
1173,19.563,42990
1174,19.580,44934
1175,19.596,38862
1176,19.613,40236
1177,19.630,41052
1178,19.646,43488
1179,19.663,41331
1180,19.680,39782
1181,19.696,40914
1182,19.713,43568
1183,19.729,39930
1184,19.746,35946
1185,19.763,41620
1186,19.779,30577
1187,19.796,31973
1188,19.813,32984
1189,19.829,29314
1190,19.846,26027
1191,19.863,26899
1192,19.879,24822
1193,19.896,23592
1194,19.912,20691
1195,19.929,18753
1196,19.946,22640
1197,19.962,15366
1198,19.979,12401
1199,19.996,14700
1200,20.012,11117
1201,20.029,10961
1202,20.046,9618
1203,20.062,9736
1204,20.079,7403
1205,20.095,7523
1206,20.112,6607
1207,20.129,6192
1208,20.145,5085
1209,20.162,4324
1210,20.179,4649
1211,20.195,3686
1212,20.212,3698
1213,20.228,3091
1214,20.245,2637
1215,20.262,2874
1216,20.278,2599
1217,20.295,2775
1218,20.312,2495
1219,20.328,2048
1220,20.345,2098
1221,20.362,1848
1222,20.378,1951
1223,20.395,2044
1224,20.411,2452
1225,20.428,1756
1226,20.445,1801
1227,20.461,1684
1228,20.478,1433
1229,20.495,1258
1230,20.511,1873
1231,20.528,1615
1232,20.545,1463
1233,20.561,1663
1234,20.578,1526
1235,20.594,1115
1236,20.611,1126
1237,20.628,1255
1238,20.644,1031
1239,20.661,1152
1240,20.678,1038
1241,20.694,935
1242,20.711,954
1243,20.727,1519
1244,20.744,1072
1245,20.761,1215
1246,20.777,1129
1247,20.794,1451
1248,20.811,975
1249,20.827,1062
1250,20.844,1130
1251,20.861,1082
1252,20.877,1090
1253,20.894,1027
1254,20.910,1325
1255,20.927,1123
1256,20.944,1174
1257,20.960,1248
1258,20.977,1133
1259,20.994,1341
1260,21.010,968
1261,21.027,1318
1262,21.044,1131
1263,21.060,1245
1264,21.077,1355
1265,21.093,1173
1266,21.110,1096
1267,21.127,1475
1268,21.143,1514
1269,21.160,1565
1270,21.177,1954
1271,21.193,3148
1272,21.210,3454
1273,21.226,4424
1274,21.243,5723
1275,21.260,6635
1276,21.276,10697
1277,21.293,11040
1278,21.310,12160
1279,21.326,15047
1280,21.343,15888
1281,21.360,20281
1282,21.376,21275
1283,21.393,24467
1284,21.409,26395
1285,21.426,28491
