#"+ BPC Scan stir_75um_sp-r011.d "
#Point,X(Minutes),Y(Counts)
0,0.054,1232
1,0.070,1366
2,0.087,1191
3,0.104,882
4,0.120,960
5,0.137,1249
6,0.153,1276
7,0.170,1450
8,0.187,1000
9,0.203,1483
10,0.220,1492
11,0.237,1479
12,0.253,1204
13,0.270,1050
14,0.287,1381
15,0.303,1403
16,0.320,1149
17,0.336,1103
18,0.353,1261
19,0.370,1709
20,0.386,1538
21,0.403,1976
22,0.420,955
23,0.436,1677
24,0.453,1134
25,0.470,893
26,0.486,1257
27,0.503,1904
28,0.519,1465
29,0.536,1414
30,0.553,986
31,0.569,1201
32,0.586,911
33,0.603,979
34,0.619,1902
35,0.636,1283
36,0.652,1283
37,0.669,1778
38,0.686,2114
39,0.702,997
40,0.719,1100
41,0.736,1291
42,0.752,1359
43,0.769,1097
44,0.786,1021
45,0.802,1182
46,0.819,1445
47,0.835,1034
48,0.852,1289
49,0.869,1197
50,0.885,1316
51,0.902,961
52,0.919,1564
53,0.935,1412
54,0.952,1519
55,0.968,1927
56,0.985,1486
57,1.002,1682
58,1.018,1647
59,1.035,1125
60,1.052,1349
61,1.068,1208
62,1.085,1817
63,1.102,1165
64,1.118,1418
65,1.135,1145
66,1.151,1528
67,1.168,1402
68,1.185,1178
69,1.201,1063
70,1.218,1073
71,1.235,1547
72,1.251,1518
73,1.268,1160
74,1.285,1224
75,1.301,1410
76,1.318,1389
77,1.334,1401
78,1.351,1118
79,1.368,1150
80,1.384,1285
81,1.401,1550
82,1.418,947
83,1.434,906
84,1.451,1303
85,1.467,1498
86,1.484,1851
87,1.501,980
88,1.517,1244
89,1.534,1029
90,1.551,1002
91,1.567,1070
92,1.584,1524
93,1.601,1019
94,1.617,1547
95,1.634,1640
96,1.650,1545
97,1.667,1541
98,1.684,1551
99,1.700,1787
100,1.717,1812
101,1.734,995
102,1.750,1699
103,1.767,1253
104,1.784,1141
105,1.800,1178
106,1.817,1422
107,1.833,1642
108,1.850,1421
109,1.867,1422
110,1.883,1223
111,1.900,1741
112,1.917,1301
113,1.933,1870
114,1.950,1410
115,1.966,1166
116,1.983,1248
117,2.000,1593
118,2.016,1263
119,2.033,2566
120,2.050,1245
121,2.066,1475
122,2.083,1710
123,2.100,1101
124,2.116,1269
125,2.133,1064
126,2.149,1154
127,2.166,1152
128,2.183,1516
129,2.199,1575
130,2.216,1427
131,2.233,1238
132,2.249,1410
133,2.266,1116
134,2.283,1846
135,2.299,1776
136,2.316,1041
137,2.332,1550
138,2.349,989
139,2.366,1081
140,2.382,1162
141,2.399,1364
142,2.416,1295
143,2.432,1880
144,2.449,1461
145,2.465,1355
146,2.482,1232
147,2.499,1276
148,2.515,1421
149,2.532,1471
150,2.549,1103
151,2.565,1734
152,2.582,1261
153,2.599,1607
154,2.615,1578
155,2.632,1144
156,2.648,1192
157,2.665,1265
158,2.682,1391
159,2.698,1313
160,2.715,1479
161,2.732,1287
162,2.748,1119
163,2.765,1328
164,2.782,1934
165,2.798,1068
166,2.815,1138
167,2.831,1278
168,2.848,1347
169,2.865,1248
170,2.881,1865
171,2.898,1074
172,2.915,1097
173,2.931,923
174,2.948,2014
175,2.964,1539
176,2.981,1055
177,2.998,1855
178,3.014,1068
179,3.031,1050
180,3.048,947
181,3.064,1334
182,3.081,1218
183,3.098,1436
184,3.114,1510
185,3.131,1363
186,3.147,1279
187,3.164,1257
188,3.181,1111
189,3.197,1440
190,3.214,1528
191,3.231,1101
192,3.247,1459
193,3.264,1466
194,3.281,1258
195,3.297,1312
196,3.314,1118
197,3.330,1174
198,3.347,1557
199,3.364,1166
200,3.380,1768
201,3.397,1010
202,3.414,1705
203,3.430,1789
204,3.447,1407
205,3.463,1082
206,3.480,1491
207,3.497,932
208,3.513,1424
209,3.530,1460
210,3.547,1902
211,3.563,1210
212,3.580,1588
213,3.597,1916
214,3.613,1352
215,3.630,1460
216,3.646,1120
217,3.663,2150
218,3.680,1369
219,3.696,1130
220,3.713,1132
221,3.730,2008
222,3.746,1173
223,3.763,1697
224,3.780,1310
225,3.796,1582
226,3.813,1661
227,3.829,1382
228,3.846,1275
229,3.863,1098
230,3.879,1242
231,3.896,1500
232,3.913,1109
233,3.929,1009
234,3.946,1361
235,3.962,1574
236,3.979,1436
237,3.996,992
238,4.012,1931
239,4.029,1154
240,4.046,1475
241,4.062,1338
242,4.079,1948
243,4.096,1127
244,4.112,1036
245,4.129,1688
246,4.145,1472
247,4.162,1464
248,4.179,1254
249,4.195,1528
250,4.212,1193
251,4.229,1257
252,4.245,1547
253,4.262,1220
254,4.278,1859
255,4.295,1019
256,4.312,1168
257,4.328,1893
258,4.345,1285
259,4.362,1850
260,4.378,1749
261,4.395,1176
262,4.412,1105
263,4.428,1186
264,4.445,1833
265,4.461,1819
266,4.478,1240
267,4.495,1502
268,4.511,1150
269,4.528,1344
270,4.545,1259
271,4.561,1410
272,4.578,1874
273,4.595,1240
274,4.611,1483
275,4.628,1203
276,4.644,1211
277,4.661,1191
278,4.678,1225
279,4.694,1276
280,4.711,1481
281,4.728,1412
282,4.744,1148
283,4.761,1425
284,4.778,1127
285,4.794,1661
286,4.811,1564
287,4.827,1273
288,4.844,1180
289,4.861,1270
290,4.877,1579
291,4.894,1461
292,4.911,911
293,4.927,1742
294,4.944,1281
295,4.960,1094
296,4.977,2052
297,4.994,1565
298,5.010,1558
299,5.027,1300
300,5.044,1368
301,5.060,1854
302,5.077,1124
303,5.094,1198
304,5.110,2020
305,5.127,1017
306,5.143,1402
307,5.160,1535
308,5.177,1248
309,5.193,1688
310,5.210,1844
311,5.227,1315
312,5.243,1944
313,5.260,1288
314,5.277,1501
315,5.293,1948
316,5.310,1843
317,5.326,1233
318,5.343,1199
319,5.360,1523
320,5.376,1251
321,5.393,1483
322,5.410,1227
323,5.426,1448
324,5.443,1629
325,5.459,1523
326,5.476,1240
327,5.493,1404
328,5.509,1164
329,5.526,1466
330,5.543,1137
331,5.559,1699
332,5.576,1490
333,5.593,1282
334,5.609,1440
335,5.626,1086
336,5.642,1258
337,5.659,1351
338,5.676,1464
339,5.692,1214
340,5.709,1341
341,5.726,1651
342,5.742,1041
343,5.759,1152
344,5.776,1216
345,5.792,1702
346,5.809,1168
347,5.825,1270
348,5.842,1234
349,5.859,1918
350,5.875,1327
351,5.892,1266
352,5.909,1797
353,5.925,1354
354,5.942,1539
355,5.958,1736
356,5.975,1270
357,5.992,1579
358,6.008,1310
359,6.025,1417
360,6.042,1909
361,6.058,1304
362,6.075,1749
363,6.092,1667
364,6.108,1206
365,6.125,1898
366,6.141,2039
367,6.158,1413
368,6.175,1784
369,6.191,1278
370,6.208,1489
371,6.225,1225
372,6.241,1393
373,6.258,1375
374,6.275,1663
375,6.291,1188
376,6.308,1656
377,6.324,1422
378,6.341,1404
379,6.358,1747
380,6.374,1210
381,6.391,1129
382,6.408,1567
383,6.424,1435
384,6.441,1275
385,6.457,1515
386,6.474,1261
387,6.491,1555
388,6.507,1165
389,6.524,1501
390,6.541,1361
391,6.557,1136
392,6.574,1453
393,6.591,1605
394,6.607,1486
395,6.624,1746
396,6.640,1523
397,6.657,1294
398,6.674,2003
399,6.690,1610
400,6.707,1496
401,6.724,1603
402,6.740,1512
403,6.757,1660
404,6.774,1364
405,6.790,1265
406,6.807,955
407,6.823,1738
408,6.840,1705
409,6.857,1112
410,6.873,1132
411,6.890,1436
412,6.907,1121
413,6.923,1244
414,6.940,1507
415,6.956,1301
416,6.973,1229
417,6.990,1055
418,7.006,1028
419,7.023,1159
420,7.040,1011
421,7.056,985
422,7.073,1209
423,7.090,1679
424,7.106,1457
425,7.123,1443
426,7.139,1900
427,7.156,1210
428,7.173,1735
429,7.189,1025
430,7.206,1045
431,7.223,1604
432,7.239,1475
433,7.256,1402
434,7.273,1264
435,7.289,1445
436,7.306,1227
437,7.322,1488
438,7.339,1715
439,7.356,1707
440,7.372,1514
441,7.389,1091
442,7.406,1546
443,7.422,1253
444,7.439,1884
445,7.455,1306
446,7.472,1636
447,7.489,1146
448,7.505,1175
449,7.522,1529
450,7.539,1568
451,7.555,1167
452,7.572,1151
453,7.589,1488
454,7.605,1474
455,7.622,1382
456,7.638,1215
457,7.655,1312
458,7.672,1358
459,7.688,1509
460,7.705,1170
461,7.722,1189
462,7.738,1139
463,7.755,1314
464,7.772,1160
465,7.788,1096
466,7.805,1641
467,7.821,858
468,7.838,1453
469,7.855,1346
470,7.871,1226
471,7.888,1347
472,7.905,1862
473,7.921,1927
474,7.938,1404
475,7.955,1864
476,7.971,1474
477,7.988,1657
478,8.004,1372
479,8.021,1403
480,8.038,1474
481,8.054,1662
482,8.071,1136
483,8.088,999
484,8.104,893
485,8.121,1794
486,8.137,1093
487,8.154,1411
488,8.171,1273
489,8.187,1223
490,8.204,1272
491,8.221,1417
492,8.237,1516
493,8.254,1330
494,8.271,1339
495,8.287,1045
496,8.304,1441
497,8.320,1399
498,8.337,1297
499,8.354,1216
500,8.370,2137
501,8.387,1052
502,8.404,1345
503,8.420,1429
504,8.437,1528
505,8.454,1415
506,8.470,1040
507,8.487,1831
508,8.503,1180
509,8.520,1306
510,8.537,1158
511,8.553,1517
512,8.570,1508
513,8.587,1097
514,8.603,2057
515,8.620,1397
516,8.636,1158
517,8.653,1404
518,8.670,1591
519,8.686,1275
520,8.703,1224
521,8.720,1336
522,8.736,1166
523,8.753,1381
524,8.770,1540
525,8.786,1045
526,8.803,1236
527,8.819,1461
528,8.836,1381
529,8.853,1178
530,8.869,1098
531,8.886,1339
532,8.903,1056
533,8.919,1793
534,8.936,1277
535,8.953,991
536,8.969,1505
537,8.986,1805
538,9.002,1972
539,9.019,1521
540,9.036,1431
541,9.052,1523
542,9.069,1688
543,9.086,2145
544,9.102,1219
545,9.119,1741
546,9.135,1158
547,9.152,1369
548,9.169,1235
549,9.185,1575
550,9.202,976
551,9.219,1587
552,9.235,1279
553,9.252,1414
554,9.269,1447
555,9.285,1614
556,9.302,1338
557,9.318,1293
558,9.335,1371
559,9.352,1383
560,9.368,1758
561,9.385,1186
562,9.402,1342
563,9.418,1387
564,9.435,1423
565,9.452,1049
566,9.468,1359
567,9.485,1119
568,9.501,1369
569,9.518,1165
570,9.535,1389
571,9.551,1584
572,9.568,1660
573,9.585,1204
574,9.601,1304
575,9.618,1322
576,9.634,1523
577,9.651,1526
578,9.668,1299
579,9.684,1025
580,9.701,1469
581,9.718,1289
582,9.734,1481
583,9.751,1035
584,9.768,1504
585,9.784,1055
586,9.801,1382
587,9.817,1192
588,9.834,1396
589,9.851,1140
590,9.867,1212
591,9.884,1738
592,9.901,1493
593,9.917,985
594,9.934,1328
595,9.951,1285
596,9.967,1703
597,9.984,1494
598,10.000,1288
599,10.017,1138
600,10.034,1784
601,10.050,1199
602,10.067,1597
603,10.084,1653
604,10.100,1156
605,10.117,831
606,10.133,1434
607,10.150,1209
608,10.167,1291
609,10.183,1270
610,10.200,1471
611,10.217,1301
612,10.233,1355
613,10.250,1208
614,10.267,1748
615,10.283,2055
616,10.300,1662
617,10.316,942
618,10.333,1332
619,10.350,1179
620,10.366,1698
621,10.383,1434
622,10.400,1137
623,10.416,1751
624,10.433,1496
625,10.450,1212
626,10.466,1531
627,10.483,1199
628,10.499,1566
629,10.516,1270
630,10.533,1197
631,10.549,1184
632,10.566,1316
633,10.583,1349
634,10.599,1048
635,10.616,1536
636,10.632,1246
637,10.649,1607
638,10.666,1230
639,10.682,1369
640,10.699,1216
641,10.716,1235
642,10.732,1221
643,10.749,1038
644,10.766,1384
645,10.782,1421
646,10.799,1100
647,10.815,1035
648,10.832,1729
649,10.849,1828
650,10.865,1391
651,10.882,1514
652,10.899,1964
653,10.915,1188
654,10.932,1616
655,10.949,1273
656,10.965,933
657,10.982,1454
658,10.998,1222
659,11.015,1279
660,11.032,1121
661,11.048,1211
662,11.065,1039
663,11.082,1761
664,11.098,1387
665,11.115,1343
666,11.131,2118
667,11.148,1471
668,11.165,1496
669,11.181,1420
670,11.198,1128
671,11.215,1813
672,11.231,1486
673,11.248,1876
674,11.265,1382
675,11.281,1510
676,11.298,1445
677,11.314,1232
678,11.331,1188
679,11.348,1211
680,11.364,1067
681,11.381,1423
682,11.398,875
683,11.414,1581
684,11.431,1060
685,11.448,1202
686,11.464,1391
687,11.481,1447
688,11.497,1335
689,11.514,1701
690,11.531,1520
691,11.547,1611
692,11.564,1192
693,11.581,1430
694,11.597,1240
695,11.614,1423
696,11.630,833
697,11.647,1129
698,11.664,905
699,11.680,1096
700,11.697,1058
701,11.714,1348
702,11.730,801
703,11.747,850
704,11.764,1371
705,11.780,925
706,11.797,1240
707,11.813,886
708,11.830,1155
709,11.847,1247
710,11.863,908
711,11.880,1271
712,11.897,1063
713,11.913,900
714,11.930,1419
715,11.947,1215
716,11.963,1675
717,11.980,1075
718,11.996,1462
719,12.013,1373
720,12.030,1088
721,12.046,1013
722,12.063,1202
723,12.080,1335
724,12.096,1516
725,12.113,1424
726,12.129,983
727,12.146,1215
728,12.163,1152
729,12.179,1265
730,12.196,1355
731,12.213,1959
732,12.229,809
733,12.246,1648
734,12.263,1483
735,12.279,1219
736,12.296,1555
737,12.312,1726
738,12.329,1314
739,12.346,1487
740,12.362,1500
741,12.379,1433
742,12.396,2000
743,12.412,1551
744,12.429,1396
745,12.446,1380
746,12.462,1863
747,12.479,1579
748,12.495,1158
749,12.512,1207
750,12.529,1125
751,12.545,1172
752,12.562,1638
753,12.579,1283
754,12.595,1732
755,12.612,1423
756,12.628,1118
757,12.645,1443
758,12.662,1472
759,12.678,1624
760,12.695,1633
761,12.712,1391
762,12.728,1395
763,12.745,1878
764,12.762,1244
765,12.778,1739
766,12.795,1908
767,12.811,1298
768,12.828,1302
769,12.845,1631
770,12.861,1165
771,12.878,918
772,12.895,1280
773,12.911,1417
774,12.928,1156
775,12.945,1590
776,12.961,1449
777,12.978,1303
778,12.994,1667
779,13.011,1450
780,13.028,1731
781,13.044,1641
782,13.061,1122
783,13.078,1301
784,13.094,1883
785,13.111,1407
786,13.127,1152
787,13.144,1381
788,13.161,1297
789,13.177,1323
790,13.194,984
791,13.211,1299
792,13.227,1132
793,13.244,1560
794,13.261,1875
795,13.277,1257
796,13.294,1282
797,13.310,1656
798,13.327,1529
799,13.344,1209
800,13.360,1530
801,13.377,1040
802,13.394,1193
803,13.410,1449
804,13.427,915
805,13.444,1693
806,13.460,1061
807,13.477,1516
808,13.493,1260
809,13.510,1844
810,13.527,1397
811,13.543,899
812,13.560,1516
813,13.577,1011
814,13.593,1547
815,13.610,1177
816,13.626,1242
817,13.643,1172
818,13.660,1213
819,13.676,1359
820,13.693,1189
821,13.710,1949
822,13.726,1445
823,13.743,1910
824,13.760,1415
825,13.776,1375
826,13.793,1345
827,13.809,1451
828,13.826,994
829,13.843,1340
830,13.859,1536
831,13.876,1542
832,13.893,1219
833,13.909,1452
834,13.926,1043
835,13.943,1547
836,13.959,1989
837,13.976,1360
838,13.992,1310
839,14.009,1565
840,14.026,1292
841,14.042,1414
842,14.059,1493
843,14.076,1607
844,14.092,1385
845,14.109,1559
846,14.125,1852
847,14.142,1345
848,14.159,1185
849,14.175,1412
850,14.192,1200
851,14.209,1630
852,14.225,1645
853,14.242,1520
854,14.259,1493
855,14.275,1714
856,14.292,2038
857,14.308,2217
858,14.325,1357
859,14.342,1478
860,14.358,1358
861,14.375,1727
862,14.392,1189
863,14.408,1506
864,14.425,1386
865,14.442,1892
866,14.458,1447
867,14.475,1442
868,14.491,1140
869,14.508,2045
870,14.525,1439
871,14.541,1320
872,14.558,1215
873,14.575,1469
874,14.591,1288
875,14.608,1590
876,14.624,1749
877,14.641,1720
878,14.658,1715
879,14.674,1750
880,14.691,1375
881,14.708,1269
882,14.724,2184
883,14.741,1582
884,14.758,909
885,14.774,1670
886,14.791,1032
887,14.807,1315
888,14.824,1577
889,14.841,1748
890,14.857,1536
891,14.874,1762
892,14.891,1586
893,14.907,1104
894,14.924,1325
895,14.940,1222
896,14.957,1372
897,14.974,1551
898,14.990,1210
899,15.007,1429
900,15.024,1645
901,15.040,1508
902,15.057,1424
903,15.074,1268
904,15.090,1537
905,15.107,1465
906,15.123,1339
907,15.140,1486
908,15.157,1343
909,15.173,1394
910,15.190,1265
911,15.207,1338
912,15.223,1300
913,15.240,1245
914,15.257,1298
915,15.273,1292
916,15.290,1616
917,15.306,1492
918,15.323,1909
919,15.340,1556
920,15.356,1078
921,15.373,1358
922,15.390,1147
923,15.406,1587
924,15.423,1256
925,15.439,1358
926,15.456,1714
927,15.473,1356
928,15.489,1367
929,15.506,1398
930,15.523,1434
931,15.539,1607
932,15.556,1558
933,15.573,1163
934,15.589,1819
935,15.606,1344
936,15.623,1498
937,15.639,1534
938,15.656,1376
939,15.672,1160
940,15.689,1915
941,15.706,1369
942,15.722,1054
943,15.739,1923
944,15.756,1552
945,15.772,1759
946,15.789,2280
947,15.805,2491
948,15.822,2815
949,15.839,3381
950,15.855,3813
951,15.872,3531
952,15.889,4002
953,15.905,4059
954,15.922,4589
955,15.939,5001
956,15.955,5570
957,15.972,5290
958,15.988,5335
959,16.005,5538
960,16.022,5867
961,16.038,5996
962,16.055,6054
963,16.072,6567
964,16.088,6693
965,16.105,6826
966,16.122,7849
967,16.138,7204
968,16.155,7687
969,16.171,8356
970,16.188,7330
971,16.205,7587
972,16.221,8371
973,16.238,7309
974,16.255,6610
975,16.271,6652
976,16.288,6650
977,16.304,6732
978,16.321,6333
979,16.338,6191
980,16.354,5862
981,16.371,5539
982,16.388,6176
983,16.404,5408
984,16.421,5626
985,16.438,5610
986,16.454,5394
987,16.471,5316
988,16.487,4689
989,16.504,4655
990,16.521,4610
991,16.537,7475
992,16.554,13108
993,16.571,20556
994,16.587,29267
995,16.604,46651
996,16.621,63721
997,16.637,85941
998,16.654,102574
999,16.670,126040
1000,16.687,155029
1001,16.704,174624
1002,16.720,179304
1003,16.737,203541
1004,16.754,211722
1005,16.770,234766
1006,16.787,243667
1007,16.803,247779
1008,16.820,264157
1009,16.837,273674
1010,16.853,281247
1011,16.870,288366
1012,16.887,308557
1013,16.903,306923
1014,16.920,310323
1015,16.937,328404
1016,16.953,324464
1017,16.970,315231
1018,16.986,307586
1019,17.003,300363
1020,17.020,307657
1021,17.036,271937
1022,17.053,267336
1023,17.070,245717
1024,17.086,227166
1025,17.103,183371
1026,17.120,151029
1027,17.136,122643
1028,17.153,92878
1029,17.169,79784
1030,17.186,65416
1031,17.203,55119
1032,17.219,47283
1033,17.236,36460
1034,17.253,31162
1035,17.269,27940
1036,17.286,22133
1037,17.302,20573
1038,17.319,16745
1039,17.336,17200
1040,17.352,14322
1041,17.369,14428
1042,17.386,12289
1043,17.402,12132
1044,17.419,10287
1045,17.436,9987
1046,17.452,9257
1047,17.469,8009
1048,17.485,8374
1049,17.502,9184
1050,17.519,7689
1051,17.535,7238
1052,17.552,6748
1053,17.569,7563
1054,17.585,6437
1055,17.602,6819
1056,17.619,6588
1057,17.635,7384
1058,17.652,6776
1059,17.668,7452
1060,17.685,7967
1061,17.702,6900
1062,17.718,7580
1063,17.735,7392
1064,17.752,9007
1065,17.768,6922
1066,17.785,8046
1067,17.801,8097
1068,17.818,8210
1069,17.835,9956
1070,17.851,8500
1071,17.868,10037
1072,17.885,8945
1073,17.901,9912
1074,17.918,8339
1075,17.935,8842
1076,17.951,8337
1077,17.968,8973
1078,17.984,9330
1079,18.001,9376
1080,18.018,10570
1081,18.034,13182
1082,18.051,15554
1083,18.068,23476
1084,18.084,31178
1085,18.101,38991
1086,18.118,44541
1087,18.134,51889
1088,18.151,62552
1089,18.167,64376
1090,18.184,73125
1091,18.201,76119
1092,18.217,77662
1093,18.234,80784
1094,18.251,87824
1095,18.267,87137
1096,18.284,84835
1097,18.300,88905
1098,18.317,91631
1099,18.334,97892
1100,18.350,98482
1101,18.367,94364
1102,18.384,95390
1103,18.400,89979
1104,18.417,89134
1105,18.434,90802
1106,18.450,92985
1107,18.467,96756
1108,18.483,91128
1109,18.500,87368
1110,18.517,90583
1111,18.533,87625
1112,18.550,84282
1113,18.567,79736
1114,18.583,79345
1115,18.600,77620
1116,18.617,73858
1117,18.633,69612
1118,18.650,62843
1119,18.666,58957
1120,18.683,52770
1121,18.700,50573
1122,18.716,44558
1123,18.733,35914
1124,18.750,34941
1125,18.766,30538
1126,18.783,25835
1127,18.799,25282
1128,18.816,20672
1129,18.833,17223
1130,18.849,14050
1131,18.866,15454
1132,18.883,9463
1133,18.899,10310
1134,18.916,7864
1135,18.933,6632
1136,18.949,7472
1137,18.966,6385
1138,18.982,5327
1139,18.999,4888
1140,19.016,6970
1141,19.032,4001
1142,19.049,3731
1143,19.066,3647
1144,19.082,3699
1145,19.099,3418
1146,19.116,3379
1147,19.132,2904
1148,19.149,2994
1149,19.165,2673
1150,19.182,2303
1151,19.199,2461
1152,19.215,2796
1153,19.232,3295
1154,19.249,2526
1155,19.265,2759
1156,19.282,2517
1157,19.298,2747
1158,19.315,2747
1159,19.332,2732
1160,19.348,2077
1161,19.365,2082
1162,19.382,2145
1163,19.398,2193
1164,19.415,2211
1165,19.432,2071
1166,19.448,1809
1167,19.465,2051
1168,19.481,2489
1169,19.498,2473
1170,19.515,2262
1171,19.531,2113
1172,19.548,1690
1173,19.565,1752
1174,19.581,1997
1175,19.598,2436
1176,19.615,1808
1177,19.631,2067
1178,19.648,1774
1179,19.664,1695
1180,19.681,2071
1181,19.698,2101
1182,19.714,1671
1183,19.731,1623
1184,19.748,1993
1185,19.764,1684
1186,19.781,2037
1187,19.797,2447
1188,19.814,1733
1189,19.831,2293
1190,19.847,1629
1191,19.864,2306
1192,19.881,2680
1193,19.897,3920
1194,19.914,5386
1195,19.931,7201
1196,19.947,10042
1197,19.964,12151
1198,19.980,17784
1199,19.997,22650
1200,20.014,24190
1201,20.030,33577
1202,20.047,31731
1203,20.064,37623
1204,20.080,39827
1205,20.097,39068
1206,20.114,38950
1207,20.130,42199
1208,20.147,43176
1209,20.163,46203
1210,20.180,47596
1211,20.197,42593
1212,20.213,44460
1213,20.230,45066
1214,20.247,45070
1215,20.263,47018
1216,20.280,44860
1217,20.296,46395
1218,20.313,45299
1219,20.330,41224
1220,20.346,47194
1221,20.363,43874
1222,20.380,43841
1223,20.396,43248
1224,20.413,43780
1225,20.430,41200
1226,20.446,38619
1227,20.463,40221
1228,20.479,34225
1229,20.496,38086
1230,20.513,35202
1231,20.529,38589
1232,20.546,32673
1233,20.563,30691
1234,20.579,29623
1235,20.596,28650
1236,20.613,26646
1237,20.629,25295
1238,20.646,23840
1239,20.662,23767
1240,20.679,20818
1241,20.696,21351
1242,20.712,18519
1243,20.729,17968
1244,20.746,16901
1245,20.762,17201
1246,20.779,13781
1247,20.795,14446
1248,20.812,12940
1249,20.829,12895
1250,20.845,11387
1251,20.862,11264
1252,20.879,12056
1253,20.895,7976
1254,20.912,9284
1255,20.929,9286
1256,20.945,9945
1257,20.962,7179
1258,20.978,7978
1259,20.995,6953
1260,21.012,6062
1261,21.028,6461
1262,21.045,6732
1263,21.062,5046
