#"+ BPC Scan stir_75um_sp-r014.d "
#Point,X(Minutes),Y(Counts)
0,0.058,1779
1,0.074,1109
2,0.091,1203
3,0.108,1192
4,0.124,1034
5,0.141,1324
6,0.158,1121
7,0.174,1616
8,0.191,1279
9,0.207,1478
10,0.224,924
11,0.241,847
12,0.257,1605
13,0.274,678
14,0.291,1258
15,0.307,1075
16,0.324,824
17,0.341,1156
18,0.357,1214
19,0.374,896
20,0.390,1452
21,0.407,1644
22,0.424,1163
23,0.440,721
24,0.457,1302
25,0.474,1280
26,0.490,850
27,0.507,1115
28,0.524,1174
29,0.540,1702
30,0.557,1342
31,0.573,1447
32,0.590,862
33,0.607,1194
34,0.623,1275
35,0.640,1145
36,0.657,1313
37,0.673,1192
38,0.690,1322
39,0.706,1045
40,0.723,1726
41,0.740,1226
42,0.756,1250
43,0.773,1263
44,0.790,1226
45,0.806,1228
46,0.823,942
47,0.840,1353
48,0.856,996
49,0.873,878
50,0.889,1004
51,0.906,862
52,0.923,1268
53,0.939,1116
54,0.956,728
55,0.973,1131
56,0.989,1076
57,1.006,943
58,1.023,1548
59,1.039,1014
60,1.056,1069
61,1.072,872
62,1.089,1572
63,1.106,1022
64,1.122,1226
65,1.139,840
66,1.156,1271
67,1.172,1719
68,1.189,915
69,1.205,1281
70,1.222,1029
71,1.239,1319
72,1.255,1451
73,1.272,1314
74,1.289,877
75,1.305,1212
76,1.322,1283
77,1.339,895
78,1.355,1339
79,1.372,849
80,1.388,1016
81,1.405,1091
82,1.422,1247
83,1.438,935
84,1.455,984
85,1.472,1495
86,1.488,1007
87,1.505,1001
88,1.522,1451
89,1.538,1536
90,1.555,1300
91,1.571,986
92,1.588,1119
93,1.605,1141
94,1.621,1287
95,1.638,1548
96,1.655,964
97,1.671,1534
98,1.688,1028
99,1.704,1127
100,1.721,945
101,1.738,1203
102,1.754,1392
103,1.771,1459
104,1.788,1344
105,1.804,1208
106,1.821,1189
107,1.838,1233
108,1.854,1318
109,1.871,1090
110,1.887,1090
111,1.904,1288
112,1.921,1786
113,1.937,952
114,1.954,1420
115,1.971,1750
116,1.987,1004
117,2.004,1198
118,2.021,1216
119,2.037,1542
120,2.054,1227
121,2.070,1595
122,2.087,1093
123,2.104,1219
124,2.120,1356
125,2.137,1265
126,2.154,886
127,2.170,987
128,2.187,780
129,2.203,1243
130,2.220,1138
131,2.237,1057
132,2.253,1080
133,2.270,962
134,2.287,1158
135,2.303,1084
136,2.320,1007
137,2.337,1391
138,2.353,1421
139,2.370,1661
140,2.386,813
141,2.403,1057
142,2.420,864
143,2.436,924
144,2.453,1383
145,2.470,1713
146,2.486,712
147,2.503,1041
148,2.520,763
149,2.536,1711
150,2.553,1239
151,2.569,869
152,2.586,1255
153,2.603,1070
154,2.619,1257
155,2.636,1008
156,2.653,1231
157,2.669,1196
158,2.686,1392
159,2.702,961
160,2.719,1041
161,2.736,1210
162,2.752,1432
163,2.769,1214
164,2.786,1575
165,2.802,1081
166,2.819,1441
167,2.836,1141
168,2.852,1228
169,2.869,1142
170,2.885,1372
171,2.902,1179
172,2.919,1021
173,2.935,1604
174,2.952,1460
175,2.969,1141
176,2.985,1027
177,3.002,981
178,3.019,1465
179,3.035,1111
180,3.052,1424
181,3.068,1321
182,3.085,1490
183,3.102,1119
184,3.118,1152
185,3.135,985
186,3.152,1257
187,3.168,814
188,3.185,1130
189,3.201,1408
190,3.218,1220
191,3.235,1206
192,3.251,1388
193,3.268,1211
194,3.285,1189
195,3.301,1251
196,3.318,1420
197,3.335,1411
198,3.351,1056
199,3.368,1751
200,3.384,1100
201,3.401,2005
202,3.418,1989
203,3.434,1237
204,3.451,1219
205,3.468,1390
206,3.484,1118
207,3.501,1279
208,3.518,1509
209,3.534,1171
210,3.551,1027
211,3.567,1526
212,3.584,1305
213,3.601,1536
214,3.617,1408
215,3.634,1912
216,3.651,1193
217,3.667,1025
218,3.684,866
219,3.700,1567
220,3.717,1443
221,3.734,909
222,3.750,1098
223,3.767,1561
224,3.784,1261
225,3.800,1358
226,3.817,1181
227,3.834,1198
228,3.850,1262
229,3.867,1160
230,3.883,1392
231,3.900,1067
232,3.917,1689
233,3.933,1032
234,3.950,1158
235,3.967,1918
236,3.983,1477
237,4.000,1382
238,4.017,860
239,4.033,1212
240,4.050,1478
241,4.066,1031
242,4.083,1117
243,4.100,1377
244,4.116,964
245,4.133,1543
246,4.150,1270
247,4.166,1013
248,4.183,1156
249,4.199,1123
250,4.216,1151
251,4.233,1706
252,4.249,1286
253,4.266,1269
254,4.283,1337
255,4.299,1517
256,4.316,1562
257,4.333,1392
258,4.349,1168
259,4.366,1496
260,4.382,1713
261,4.399,1116
262,4.416,1088
263,4.432,1094
264,4.449,1279
265,4.466,1544
266,4.482,1026
267,4.499,1341
268,4.516,1086
269,4.532,1494
270,4.549,918
271,4.565,1130
272,4.582,1171
273,4.599,1173
274,4.615,1315
275,4.632,1698
276,4.649,1554
277,4.665,990
278,4.682,1059
279,4.698,1247
280,4.715,1371
281,4.732,1366
282,4.748,1118
283,4.765,1409
284,4.782,862
285,4.798,1246
286,4.815,982
287,4.832,1310
288,4.848,1136
289,4.865,1429
290,4.881,1232
291,4.898,1387
292,4.915,1108
293,4.931,1064
294,4.948,1357
295,4.965,1081
296,4.981,1284
297,4.998,1523
298,5.015,1802
299,5.031,1124
300,5.048,879
301,5.064,1225
302,5.081,1076
303,5.098,956
304,5.114,1205
305,5.131,1268
306,5.148,1189
307,5.164,1363
308,5.181,1151
309,5.197,1146
310,5.214,1098
311,5.231,1049
312,5.247,1645
313,5.264,1401
314,5.281,1114
315,5.297,1167
316,5.314,1214
317,5.331,1675
318,5.347,1150
319,5.364,1285
320,5.380,1165
321,5.397,1367
322,5.414,1251
323,5.430,1472
324,5.447,819
325,5.464,1370
326,5.480,1306
327,5.497,1002
328,5.513,1244
329,5.530,1391
330,5.547,1422
331,5.563,1313
332,5.580,1718
333,5.597,1505
334,5.613,1344
335,5.630,1243
336,5.647,1112
337,5.663,1740
338,5.680,1178
339,5.696,1166
340,5.713,1385
341,5.730,1485
342,5.746,1302
343,5.763,1320
344,5.780,1032
345,5.796,1228
346,5.813,1210
347,5.830,1457
348,5.846,1127
349,5.863,1434
350,5.879,970
351,5.896,1915
352,5.913,1422
353,5.929,1325
354,5.946,943
355,5.963,781
356,5.979,1391
357,5.996,823
358,6.012,1515
359,6.029,1314
360,6.046,1338
361,6.062,1011
362,6.079,1161
363,6.096,797
364,6.112,1332
365,6.129,896
366,6.146,1495
367,6.162,1567
368,6.179,1162
369,6.195,1228
370,6.212,1444
371,6.229,1261
372,6.245,1281
373,6.262,1026
374,6.279,1108
375,6.295,1288
376,6.312,1451
377,6.329,1342
378,6.345,996
379,6.362,1310
380,6.378,1590
381,6.395,1353
382,6.412,1458
383,6.428,1204
384,6.445,1133
385,6.462,1005
386,6.478,1105
387,6.495,837
388,6.511,1959
389,6.528,1381
390,6.545,1492
391,6.561,2102
392,6.578,1385
393,6.595,1245
394,6.611,1467
395,6.628,1368
396,6.645,1043
397,6.661,1114
398,6.678,1578
399,6.694,1259
400,6.711,1317
401,6.728,1339
402,6.744,1422
403,6.761,1266
404,6.778,969
405,6.794,1203
406,6.811,1343
407,6.828,857
408,6.844,1048
409,6.861,926
410,6.877,1089
411,6.894,1211
412,6.911,872
413,6.927,1142
414,6.944,1862
415,6.961,1061
416,6.977,984
417,6.994,1231
418,7.010,877
419,7.027,725
420,7.044,1103
421,7.060,1405
422,7.077,1038
423,7.094,689
424,7.110,1290
425,7.127,1460
426,7.144,1301
427,7.160,1510
428,7.177,1580
429,7.194,1161
430,7.210,1630
431,7.227,1264
432,7.243,1305
433,7.260,1078
434,7.277,1340
435,7.293,1254
436,7.310,1123
437,7.327,1340
438,7.343,1271
439,7.360,1419
440,7.376,1662
441,7.393,1407
442,7.410,1220
443,7.426,1278
444,7.443,1073
445,7.460,1113
446,7.476,1441
447,7.493,1349
448,7.510,1183
449,7.526,1125
450,7.543,995
451,7.559,1266
452,7.576,1569
453,7.593,1181
454,7.609,1505
455,7.626,1122
456,7.643,910
457,7.659,1472
458,7.676,1701
459,7.693,1018
460,7.709,1305
461,7.726,1464
462,7.742,1322
463,7.759,1464
464,7.776,1408
465,7.792,1495
466,7.809,1104
467,7.826,1358
468,7.842,1331
469,7.859,842
470,7.875,1319
471,7.892,1340
472,7.909,1295
473,7.925,1251
474,7.942,1847
475,7.959,896
476,7.975,1092
477,7.992,1324
478,8.009,1422
479,8.025,1052
480,8.042,1591
481,8.058,808
482,8.075,1404
483,8.092,1561
484,8.108,1238
485,8.125,1163
486,8.142,1197
487,8.158,1041
488,8.175,1475
489,8.192,1059
490,8.208,1333
491,8.225,954
492,8.241,1450
493,8.258,1171
494,8.275,1219
495,8.291,987
496,8.308,1223
497,8.325,1033
498,8.341,962
499,8.358,1096
500,8.374,1338
501,8.391,1491
502,8.408,1722
503,8.424,1024
504,8.441,846
505,8.458,1469
506,8.474,1481
507,8.491,1042
508,8.508,1242
509,8.524,1896
510,8.541,1366
511,8.557,1278
512,8.574,1065
513,8.591,1328
514,8.607,1553
515,8.624,1206
516,8.641,1014
517,8.657,1411
518,8.674,1348
519,8.691,1421
520,8.707,970
521,8.724,1229
522,8.740,1344
523,8.757,1354
524,8.774,1445
525,8.790,997
526,8.807,1382
527,8.824,1359
528,8.840,1112
529,8.857,1309
530,8.873,1295
531,8.890,1006
532,8.907,1054
533,8.923,1424
534,8.940,1183
535,8.957,1156
536,8.973,801
537,8.990,1133
538,9.007,1062
539,9.023,979
540,9.040,1284
541,9.056,1064
542,9.073,1730
543,9.090,1845
544,9.106,970
545,9.123,1252
546,9.140,1854
547,9.156,1042
548,9.173,1439
549,9.190,989
550,9.206,1045
551,9.223,1081
552,9.239,1048
553,9.256,824
554,9.273,1467
555,9.289,1123
556,9.306,998
557,9.323,1160
558,9.339,1293
559,9.356,1085
560,9.372,1425
561,9.389,1767
562,9.406,662
563,9.422,1945
564,9.439,1326
565,9.456,1303
566,9.472,1924
567,9.489,1265
568,9.506,1326
569,9.522,869
570,9.539,1637
571,9.555,1092
572,9.572,966
573,9.589,880
574,9.605,1331
575,9.622,1347
576,9.639,929
577,9.655,1087
578,9.672,1053
579,9.689,1131
580,9.705,1554
581,9.722,1815
582,9.738,1439
583,9.755,1382
584,9.772,1337
585,9.788,1156
586,9.805,1552
587,9.822,1268
588,9.838,1428
589,9.855,1239
590,9.871,1122
591,9.888,936
592,9.905,1669
593,9.921,1179
594,9.938,1355
595,9.955,1253
596,9.971,934
597,9.988,1274
598,10.005,1024
599,10.021,1599
600,10.038,1108
601,10.054,1658
602,10.071,1065
603,10.088,1109
604,10.104,838
605,10.121,1653
606,10.138,1652
607,10.154,1382
608,10.171,1036
609,10.188,856
610,10.204,1307
611,10.221,1194
612,10.237,1522
613,10.254,1194
614,10.271,1160
615,10.287,1149
616,10.304,1235
617,10.321,1207
618,10.337,1260
619,10.354,902
620,10.370,1528
621,10.387,1046
622,10.404,736
623,10.420,909
624,10.437,1599
625,10.454,1137
626,10.470,1131
627,10.487,921
628,10.504,1523
629,10.520,1216
630,10.537,1145
631,10.553,1820
632,10.570,1132
633,10.587,1401
634,10.603,1667
635,10.620,970
636,10.637,1151
637,10.653,849
638,10.670,1470
639,10.687,867
640,10.703,1237
641,10.720,1688
642,10.736,1517
643,10.753,979
644,10.770,1566
645,10.786,1085
646,10.803,1050
647,10.820,1447
648,10.836,825
649,10.853,1230
650,10.869,1066
651,10.886,1546
652,10.903,1129
653,10.919,1160
654,10.936,1306
655,10.953,1392
656,10.969,1395
657,10.986,1426
658,11.003,1176
659,11.019,1378
660,11.036,884
661,11.052,1570
662,11.069,1128
663,11.086,1176
664,11.102,1414
665,11.119,1200
666,11.136,1172
667,11.152,1277
668,11.169,1087
669,11.186,1494
670,11.202,1919
671,11.219,1293
672,11.235,1277
673,11.252,1695
674,11.269,914
675,11.285,1172
676,11.302,1102
677,11.319,1351
678,11.335,1108
679,11.352,802
680,11.368,1062
681,11.385,986
682,11.402,1062
683,11.418,1202
684,11.435,1587
685,11.452,1058
686,11.468,1758
687,11.485,1752
688,11.502,1190
689,11.518,1593
690,11.535,1967
691,11.551,1467
692,11.568,1018
693,11.585,1408
694,11.601,1483
695,11.618,1576
696,11.635,1580
697,11.651,1200
698,11.668,1267
699,11.685,1319
700,11.701,1470
701,11.718,1361
702,11.734,1164
703,11.751,1570
704,11.768,1214
705,11.784,1239
706,11.801,1361
707,11.818,1226
708,11.834,1118
709,11.851,1432
710,11.867,1264
711,11.884,1236
712,11.901,893
713,11.917,1023
714,11.934,1439
715,11.951,1461
716,11.967,947
717,11.984,1055
718,12.001,1016
719,12.017,1305
720,12.034,1487
721,12.050,1377
722,12.067,1323
723,12.084,1184
724,12.100,1298
725,12.117,1188
726,12.134,1616
727,12.150,1116
728,12.167,1183
729,12.184,1318
730,12.200,1409
731,12.217,1140
732,12.233,1097
733,12.250,871
734,12.267,1085
735,12.283,854
736,12.300,1351
737,12.317,1184
738,12.333,1552
739,12.350,1744
740,12.366,1191
741,12.383,1004
742,12.400,1257
743,12.416,850
744,12.433,1372
745,12.450,1119
746,12.466,1369
747,12.483,1544
748,12.500,946
749,12.516,1182
750,12.533,1258
751,12.549,1145
752,12.566,1093
753,12.583,1350
754,12.599,1477
755,12.616,1410
756,12.633,981
757,12.649,888
758,12.666,1191
759,12.682,971
760,12.699,1455
761,12.716,1492
762,12.732,1701
763,12.749,1081
764,12.766,1705
765,12.782,1713
766,12.799,929
767,12.816,1278
768,12.832,1223
769,12.849,1405
770,12.865,1406
771,12.882,1517
772,12.899,857
773,12.915,1628
774,12.932,1175
775,12.949,1521
776,12.965,1710
777,12.982,1203
778,12.999,1361
779,13.015,1509
780,13.032,1272
781,13.048,1754
782,13.065,957
783,13.082,1385
784,13.098,1243
785,13.115,1197
786,13.132,1200
787,13.148,1272
788,13.165,1822
789,13.181,1624
790,13.198,1285
791,13.215,1281
792,13.231,1333
793,13.248,1589
794,13.265,1409
795,13.281,1037
796,13.298,947
797,13.315,1371
798,13.331,1825
799,13.348,937
800,13.364,1040
801,13.381,976
802,13.398,1081
803,13.414,1216
804,13.431,1099
805,13.448,1160
806,13.464,1138
807,13.481,903
808,13.498,1358
809,13.514,1219
810,13.531,1399
811,13.547,1032
812,13.564,984
813,13.581,1020
814,13.597,1331
815,13.614,1136
816,13.631,798
817,13.647,1495
818,13.664,1002
819,13.680,963
820,13.697,1016
821,13.714,939
822,13.730,976
823,13.747,1041
824,13.764,1148
825,13.780,896
826,13.797,1507
827,13.814,1346
828,13.830,1175
829,13.847,1115
830,13.863,1150
831,13.880,1552
832,13.897,1409
833,13.913,1226
834,13.930,1088
835,13.947,1350
836,13.963,1856
837,13.980,1004
838,13.997,1231
839,14.013,1138
840,14.030,1153
841,14.046,1050
842,14.063,1169
843,14.080,1073
844,14.096,1323
845,14.113,1250
846,14.130,1281
847,14.146,1014
848,14.163,1217
849,14.179,1479
850,14.196,1243
851,14.213,1166
852,14.229,1156
853,14.246,1117
854,14.263,874
855,14.279,882
856,14.296,1428
857,14.313,1331
858,14.329,1480
859,14.346,1638
860,14.362,1319
861,14.379,1300
862,14.396,1251
863,14.412,1008
864,14.429,1309
865,14.446,1231
866,14.462,1544
867,14.479,1444
868,14.496,1347
869,14.512,1377
870,14.529,1530
871,14.545,1124
872,14.562,1468
873,14.579,1023
874,14.595,1241
875,14.612,1027
876,14.629,1115
877,14.645,1325
878,14.662,1714
879,14.678,1085
880,14.695,1605
881,14.712,1360
882,14.728,949
883,14.745,1097
884,14.762,1207
885,14.778,1664
886,14.795,1353
887,14.812,1025
888,14.828,1418
889,14.845,1320
890,14.862,1124
891,14.878,1420
892,14.895,986
893,14.911,1008
894,14.928,1730
895,14.945,1139
896,14.961,1515
897,14.978,1174
898,14.995,1673
899,15.011,1885
900,15.028,1870
901,15.044,1529
902,15.061,810
903,15.078,1152
904,15.094,1422
905,15.111,1383
906,15.128,1074
907,15.144,1183
908,15.161,1257
909,15.178,1268
910,15.194,1626
911,15.211,1336
912,15.227,1814
913,15.244,1651
914,15.261,1001
915,15.277,1285
916,15.294,1639
917,15.311,1634
918,15.327,2571
919,15.344,1365
920,15.361,1492
921,15.377,1662
922,15.394,957
923,15.410,1650
924,15.427,1290
925,15.444,1014
926,15.460,1497
927,15.477,1145
928,15.494,1180
929,15.510,1450
930,15.527,1397
931,15.543,1141
932,15.560,1328
933,15.577,1458
934,15.593,1339
935,15.610,1375
936,15.627,990
937,15.643,1382
938,15.660,1317
939,15.677,1393
940,15.693,2122
941,15.710,1160
942,15.726,1189
943,15.743,1891
944,15.760,1583
945,15.776,1225
946,15.793,1373
947,15.810,1015
948,15.826,1248
949,15.843,1609
950,15.860,1294
951,15.876,1584
952,15.893,1308
953,15.909,834
954,15.926,1156
955,15.943,1555
956,15.959,1148
957,15.976,1353
958,15.993,1182
959,16.009,1446
960,16.026,1528
961,16.042,1571
962,16.059,1671
963,16.076,2135
964,16.092,2380
965,16.109,2959
966,16.126,2961
967,16.142,3053
968,16.159,3378
969,16.176,4124
970,16.192,3932
971,16.209,4279
972,16.225,4896
973,16.242,4504
974,16.259,5136
975,16.275,5409
976,16.292,5571
977,16.309,5420
978,16.325,6126
979,16.342,5848
980,16.359,6355
981,16.375,7447
982,16.392,7674
983,16.408,7153
984,16.425,6628
985,16.442,7998
986,16.458,7310
987,16.475,7955
988,16.492,7600
989,16.508,8062
990,16.525,7947
991,16.541,7679
992,16.558,8192
993,16.575,7728
994,16.591,7643
995,16.608,7842
996,16.625,7560
997,16.641,7521
998,16.658,7368
999,16.675,7088
1000,16.691,6714
1001,16.708,7223
1002,16.724,7250
1003,16.741,6529
1004,16.758,5971
1005,16.774,7192
1006,16.791,5836
1007,16.808,6190
1008,16.824,6397
1009,16.841,5833
1010,16.858,6231
1011,16.874,5562
1012,16.891,7072
1013,16.907,12642
1014,16.924,18484
1015,16.941,25633
1016,16.957,35401
1017,16.974,51158
1018,16.991,61753
1019,17.007,72186
1020,17.024,89667
1021,17.040,101095
1022,17.057,116432
1023,17.074,129963
1024,17.090,147563
1025,17.107,163244
1026,17.124,169967
1027,17.140,194796
1028,17.157,204174
1029,17.174,211134
1030,17.190,215154
1031,17.207,222965
1032,17.223,243337
1033,17.240,250039
1034,17.257,250518
1035,17.273,247743
1036,17.290,267159
1037,17.307,270712
1038,17.323,278533
1039,17.340,274509
1040,17.357,287165
1041,17.373,274289
1042,17.390,276894
1043,17.406,254389
1044,17.423,244812
1045,17.440,228299
1046,17.456,206500
1047,17.473,192570
1048,17.490,173024
1049,17.506,147593
1050,17.523,127231
1051,17.539,113282
1052,17.556,98330
1053,17.573,78176
1054,17.589,67599
1055,17.606,56272
1056,17.623,50980
1057,17.639,40089
1058,17.656,33946
1059,17.673,28589
1060,17.689,25402
1061,17.706,23989
1062,17.722,21159
1063,17.739,17059
1064,17.756,16964
1065,17.772,13333
1066,17.789,12532
1067,17.806,11496
1068,17.822,11515
1069,17.839,10868
1070,17.856,11310
1071,17.872,8732
1072,17.889,8332
1073,17.905,8392
1074,17.922,8503
1075,17.939,7742
1076,17.955,6719
1077,17.972,6696
1078,17.989,6096
1079,18.005,6274
1080,18.022,6762
1081,18.038,6169
1082,18.055,6193
1083,18.072,8102
1084,18.088,6476
1085,18.105,6104
1086,18.122,9133
1087,18.138,6976
1088,18.155,8247
1089,18.172,7828
1090,18.188,7876
1091,18.205,7312
1092,18.221,7402
1093,18.238,7938
1094,18.255,8179
1095,18.271,8909
1096,18.288,8188
1097,18.305,9572
1098,18.321,8729
1099,18.338,9262
1100,18.355,8143
1101,18.371,9187
1102,18.388,8773
1103,18.404,8032
1104,18.421,7084
1105,18.438,8310
1106,18.454,7613
1107,18.471,9083
1108,18.488,10957
1109,18.504,14397
1110,18.521,14859
1111,18.537,19059
1112,18.554,21558
1113,18.571,23392
1114,18.587,29490
1115,18.604,32772
1116,18.621,35400
1117,18.637,38922
1118,18.654,40853
1119,18.671,36470
1120,18.687,38008
1121,18.704,36476
1122,18.720,43611
1123,18.737,38075
1124,18.754,40610
1125,18.770,38875
1126,18.787,37995
1127,18.804,38144
1128,18.820,37136
1129,18.837,39598
1130,18.854,39782
1131,18.870,41968
1132,18.887,40706
1133,18.903,42744
1134,18.920,42240
1135,18.937,45388
1136,18.953,44179
1137,18.970,42740
1138,18.987,40631
1139,19.003,41899
1140,19.020,38624
1141,19.036,35410
1142,19.053,33968
1143,19.070,34032
1144,19.086,30078
1145,19.103,29519
1146,19.120,29224
1147,19.136,26552
1148,19.153,24634
1149,19.170,20189
1150,19.186,24352
1151,19.203,18724
1152,19.219,17970
1153,19.236,17064
1154,19.253,13544
1155,19.269,13597
1156,19.286,11374
1157,19.303,8984
1158,19.319,8510
1159,19.336,8372
1160,19.353,7092
1161,19.369,5333
1162,19.386,5672
1163,19.402,4382
1164,19.419,5164
1165,19.436,5035
1166,19.452,4569
1167,19.469,3078
1168,19.486,2857
1169,19.502,2540
1170,19.519,2179
1171,19.535,2736
1172,19.552,2733
1173,19.569,2558
1174,19.585,2238
1175,19.602,2090
1176,19.619,2003
1177,19.635,1865
1178,19.652,1769
1179,19.669,1745
1180,19.685,1580
1181,19.702,1452
1182,19.718,1722
1183,19.735,1401
1184,19.752,1672
1185,19.768,1763
1186,19.785,1277
1187,19.802,1462
1188,19.818,1277
1189,19.835,1453
1190,19.851,1480
1191,19.868,1107
1192,19.885,1340
1193,19.901,1312
1194,19.918,1442
1195,19.935,1155
1196,19.951,1029
1197,19.968,1513
1198,19.985,1165
1199,20.001,1488
1200,20.018,1249
1201,20.034,1227
1202,20.051,1282
1203,20.068,1608
1204,20.084,1143
1205,20.101,1277
1206,20.118,1193
1207,20.134,1168
1208,20.151,1435
1209,20.168,1266
1210,20.184,1151
1211,20.201,1515
1212,20.217,1304
1213,20.234,1333
1214,20.251,1331
1215,20.267,1274
1216,20.284,1324
1217,20.301,1166
1218,20.317,1946
1219,20.334,2174
1220,20.350,2071
1221,20.367,3214
1222,20.384,3972
1223,20.400,6199
1224,20.417,6396
1225,20.434,8189
1226,20.450,10947
1227,20.467,10677
1228,20.484,16134
1229,20.500,17834
1230,20.517,19864
1231,20.533,19011
1232,20.550,23568
1233,20.567,30036
1234,20.583,29197
1235,20.600,27673
1236,20.617,30918
1237,20.633,33541
1238,20.650,32361
1239,20.667,37371
1240,20.683,39182
1241,20.700,39146
1242,20.716,38616
1243,20.733,33069
1244,20.750,36291
1245,20.766,37512
1246,20.783,35210
1247,20.800,36566
1248,20.816,35044
1249,20.833,33923
1250,20.849,32489
1251,20.866,34115
1252,20.883,31505
1253,20.899,32506
1254,20.916,29403
1255,20.933,30596
1256,20.949,28290
1257,20.966,30324
1258,20.983,29631
1259,20.999,27045
1260,21.016,25814
1261,21.032,27100
1262,21.049,26501
1263,21.066,26086
1264,21.082,21255
1265,21.099,25589
1266,21.116,20665
1267,21.132,20464
1268,21.149,19140
1269,21.166,18136
