#"+ BPC Scan nostir_50um_sp-r013.d "
#Point,X(Minutes),Y(Counts)
0,0.058,764
1,0.074,510
2,0.091,510
3,0.108,618
4,0.124,538
5,0.141,520
6,0.158,681
7,0.174,532
8,0.191,498
9,0.208,429
10,0.224,415
11,0.241,510
12,0.257,530
13,0.274,381
14,0.291,466
15,0.307,650
16,0.324,452
17,0.341,510
18,0.357,452
19,0.374,419
20,0.390,630
21,0.407,520
22,0.424,428
23,0.440,474
24,0.457,661
25,0.474,681
26,0.490,515
27,0.507,640
28,0.524,430
29,0.540,473
30,0.557,497
31,0.573,536
32,0.590,764
33,0.607,484
34,0.623,653
35,0.640,513
36,0.657,510
37,0.673,510
38,0.690,487
39,0.707,408
40,0.723,441
41,0.740,784
42,0.756,510
43,0.773,510
44,0.790,510
45,0.806,510
46,0.823,535
47,0.840,510
48,0.856,570
49,0.873,744
50,0.889,579
51,0.906,510
52,0.923,631
53,0.939,797
54,0.956,511
55,0.973,611
56,0.989,687
57,1.006,484
58,1.023,755
59,1.039,849
60,1.056,733
61,1.072,510
62,1.089,405
63,1.106,510
64,1.122,632
65,1.139,531
66,1.156,510
67,1.172,462
68,1.189,595
69,1.206,465
70,1.222,492
71,1.239,496
72,1.255,412
73,1.272,510
74,1.289,593
75,1.305,516
76,1.322,591
77,1.339,632
78,1.355,516
79,1.372,566
80,1.388,428
81,1.405,484
82,1.422,596
83,1.438,487
84,1.455,599
85,1.472,456
86,1.488,561
87,1.505,385
88,1.522,510
89,1.538,587
90,1.555,705
91,1.571,407
92,1.588,510
93,1.605,510
94,1.621,490
95,1.638,483
96,1.655,489
97,1.671,510
98,1.688,616
99,1.705,558
100,1.721,583
101,1.738,418
102,1.754,360
103,1.771,456
104,1.788,614
105,1.804,535
106,1.821,601
107,1.838,465
108,1.854,468
109,1.871,528
110,1.887,431
111,1.904,510
112,1.921,491
113,1.937,770
114,1.954,519
115,1.971,510
116,1.987,499
117,2.004,420
118,2.021,481
119,2.037,474
120,2.054,390
121,2.070,711
122,2.087,510
123,2.104,586
124,2.120,461
125,2.137,551
126,2.154,524
127,2.170,498
128,2.187,641
129,2.204,756
130,2.220,510
131,2.237,437
132,2.253,435
133,2.270,510
134,2.287,510
135,2.303,526
136,2.320,612
137,2.337,482
138,2.353,526
139,2.370,883
140,2.386,539
141,2.403,851
142,2.420,407
143,2.436,497
144,2.453,631
145,2.470,531
146,2.486,564
147,2.503,526
148,2.520,421
149,2.536,434
150,2.553,435
151,2.569,510
152,2.586,508
153,2.603,502
154,2.619,575
155,2.636,463
156,2.653,678
157,2.669,734
158,2.686,507
159,2.703,520
160,2.719,773
161,2.736,610
162,2.752,699
163,2.769,482
164,2.786,743
165,2.802,644
166,2.819,1479
167,2.836,743
168,2.852,783
169,2.869,1006
170,2.885,817
171,2.902,590
172,2.919,682
173,2.935,1060
174,2.952,719
175,2.969,1020
176,2.985,510
177,3.002,1001
178,3.019,768
179,3.035,728
180,3.052,1417
181,3.068,840
182,3.085,1125
183,3.102,897
184,3.118,1088
185,3.135,969
186,3.152,1340
187,3.168,669
188,3.185,631
189,3.202,562
190,3.218,621
191,3.235,588
192,3.251,740
193,3.268,616
194,3.285,685
195,3.301,989
196,3.318,821
197,3.335,1081
198,3.351,901
199,3.368,742
200,3.384,510
201,3.401,430
202,3.418,774
203,3.434,609
204,3.451,408
205,3.468,622
206,3.484,660
207,3.501,886
208,3.518,655
209,3.534,436
210,3.551,584
211,3.567,746
212,3.584,640
213,3.601,679
214,3.617,533
215,3.634,494
216,3.651,938
217,3.667,498
218,3.684,511
219,3.701,510
220,3.717,534
221,3.734,532
222,3.750,524
223,3.767,512
224,3.784,507
225,3.800,559
226,3.817,721
227,3.834,447
228,3.850,899
229,3.867,557
230,3.883,484
231,3.900,481
232,3.917,693
233,3.933,513
234,3.950,622
235,3.967,408
236,3.983,653
237,4.000,455
238,4.017,462
239,4.033,510
240,4.050,518
241,4.066,722
242,4.083,355
243,4.100,502
244,4.116,471
245,4.133,516
246,4.150,652
247,4.166,444
248,4.183,560
249,4.200,510
250,4.216,468
251,4.233,510
252,4.249,651
253,4.266,804
254,4.283,553
255,4.299,525
256,4.316,510
257,4.333,794
258,4.349,527
259,4.366,754
260,4.382,510
261,4.399,591
262,4.416,884
263,4.432,594
264,4.449,502
265,4.466,462
266,4.482,488
267,4.499,563
268,4.516,510
269,4.532,381
270,4.549,437
271,4.565,554
272,4.582,510
273,4.599,510
274,4.615,571
275,4.632,510
276,4.649,576
277,4.665,527
278,4.682,510
279,4.699,754
280,4.715,472
281,4.732,650
282,4.748,677
283,4.765,510
284,4.782,597
285,4.798,754
286,4.815,514
287,4.832,715
288,4.848,414
289,4.865,455
290,4.881,658
291,4.898,428
292,4.915,510
293,4.931,582
294,4.948,927
295,4.965,530
296,4.981,579
297,4.998,571
298,5.015,504
299,5.031,517
300,5.048,520
301,5.064,626
302,5.081,694
303,5.098,651
304,5.114,510
305,5.131,512
306,5.148,510
307,5.164,739
308,5.181,465
309,5.198,569
310,5.214,433
311,5.231,506
312,5.247,631
313,5.264,850
314,5.281,510
315,5.297,512
316,5.314,510
317,5.331,602
318,5.347,609
319,5.364,510
320,5.381,510
321,5.397,510
322,5.414,384
323,5.430,383
324,5.447,516
325,5.464,525
326,5.480,429
327,5.497,510
328,5.514,511
329,5.530,504
330,5.547,506
331,5.563,491
332,5.580,584
333,5.597,510
334,5.613,541
335,5.630,539
336,5.647,397
337,5.663,510
338,5.680,451
339,5.697,442
340,5.713,540
341,5.730,610
342,5.746,453
343,5.763,577
344,5.780,571
345,5.796,539
346,5.813,510
347,5.830,792
348,5.846,699
349,5.863,511
350,5.880,483
351,5.896,444
352,5.913,510
353,5.929,480
354,5.946,736
355,5.963,402
356,5.979,514
357,5.996,510
358,6.013,649
359,6.029,510
360,6.046,493
361,6.062,575
362,6.079,528
363,6.096,664
364,6.112,514
365,6.129,510
366,6.146,510
367,6.162,449
368,6.179,510
369,6.196,450
370,6.212,562
371,6.229,522
372,6.245,533
373,6.262,592
374,6.279,510
375,6.295,518
376,6.312,510
377,6.329,510
378,6.345,542
379,6.362,510
380,6.379,475
381,6.395,377
382,6.412,510
383,6.428,588
384,6.445,510
385,6.462,656
386,6.478,456
387,6.495,546
388,6.512,646
389,6.528,510
390,6.545,551
391,6.561,491
392,6.578,907
393,6.595,560
394,6.611,494
395,6.628,524
396,6.645,514
397,6.661,510
398,6.678,666
399,6.695,734
400,6.711,512
401,6.728,487
402,6.744,452
403,6.761,520
404,6.778,537
405,6.794,573
406,6.811,510
407,6.828,439
408,6.844,513
409,6.861,587
410,6.878,510
411,6.894,510
412,6.911,503
413,6.927,483
414,6.944,450
415,6.961,537
416,6.977,531
417,6.994,510
418,7.011,422
419,7.027,429
420,7.044,434
421,7.060,461
422,7.077,750
423,7.094,434
424,7.110,510
425,7.127,629
426,7.144,534
427,7.160,748
428,7.177,530
429,7.194,510
430,7.210,474
431,7.227,555
432,7.243,568
433,7.260,681
434,7.277,522
435,7.293,464
436,7.310,504
437,7.327,452
438,7.343,459
439,7.360,541
440,7.377,688
441,7.393,656
442,7.410,465
443,7.426,514
444,7.443,510
445,7.460,479
446,7.476,466
447,7.493,600
448,7.510,617
449,7.526,590
450,7.543,417
451,7.559,438
452,7.576,754
453,7.593,518
454,7.609,465
455,7.626,560
456,7.643,467
457,7.659,589
458,7.676,602
459,7.693,489
460,7.709,562
461,7.726,521
462,7.742,510
463,7.759,638
464,7.776,470
465,7.792,507
466,7.809,498
467,7.826,632
468,7.842,644
469,7.859,510
470,7.876,587
471,7.892,487
472,7.909,658
473,7.925,483
474,7.942,385
475,7.959,512
476,7.975,585
477,7.992,378
478,8.009,522
479,8.025,384
480,8.042,510
481,8.058,715
482,8.075,498
483,8.092,431
484,8.108,484
485,8.125,384
486,8.142,715
487,8.158,601
488,8.175,535
489,8.192,400
490,8.208,510
491,8.225,542
492,8.241,456
493,8.258,692
494,8.275,659
495,8.291,548
496,8.308,419
497,8.325,850
498,8.341,510
499,8.358,550
500,8.375,582
501,8.391,492
502,8.408,510
503,8.424,673
504,8.441,525
505,8.458,448
506,8.474,539
507,8.491,472
508,8.508,765
509,8.524,429
510,8.541,1023
511,8.557,691
512,8.574,436
513,8.591,580
514,8.607,504
515,8.624,458
516,8.641,420
517,8.657,636
518,8.674,530
519,8.691,443
520,8.707,441
521,8.724,510
522,8.740,501
523,8.757,469
524,8.774,502
525,8.790,480
526,8.807,562
527,8.824,713
528,8.840,476
529,8.857,451
530,8.874,491
531,8.890,395
532,8.907,577
533,8.923,546
534,8.940,462
535,8.957,532
536,8.973,486
537,8.990,470
538,9.007,504
539,9.023,495
540,9.040,530
541,9.056,398
542,9.073,510
543,9.090,530
544,9.106,618
545,9.123,383
546,9.140,510
547,9.156,504
548,9.173,442
549,9.190,521
550,9.206,475
551,9.223,510
552,9.239,515
553,9.256,505
554,9.273,491
555,9.289,510
556,9.306,507
557,9.323,536
558,9.339,419
559,9.356,447
560,9.373,450
561,9.389,807
562,9.406,553
563,9.422,435
564,9.439,608
565,9.456,549
566,9.472,510
567,9.489,510
568,9.506,654
569,9.522,538
570,9.539,484
571,9.555,512
572,9.572,716
573,9.589,486
574,9.605,510
575,9.622,584
576,9.639,509
577,9.655,488
578,9.672,438
579,9.689,505
580,9.705,615
581,9.722,391
582,9.738,510
583,9.755,445
584,9.772,510
585,9.788,494
586,9.805,569
587,9.822,609
588,9.838,817
589,9.855,510
590,9.872,524
591,9.888,413
592,9.905,501
593,9.921,489
594,9.938,356
595,9.955,621
596,9.971,483
597,9.988,510
598,10.005,510
599,10.021,510
600,10.038,511
601,10.054,596
602,10.071,480
603,10.088,638
604,10.104,637
605,10.121,449
606,10.138,510
607,10.154,486
608,10.171,496
609,10.188,420
610,10.204,630
611,10.221,448
612,10.237,530
613,10.254,601
614,10.271,408
615,10.287,528
616,10.304,692
617,10.321,478
618,10.337,510
619,10.354,383
620,10.371,357
621,10.387,585
622,10.404,526
623,10.420,609
624,10.437,490
625,10.454,745
626,10.470,522
627,10.487,467
628,10.504,426
629,10.520,517
630,10.537,502
631,10.553,528
632,10.570,508
633,10.587,510
634,10.603,541
635,10.620,564
636,10.637,458
637,10.653,535
638,10.670,519
639,10.687,526
640,10.703,533
641,10.720,460
642,10.736,510
643,10.753,371
644,10.770,669
645,10.786,576
646,10.803,480
647,10.820,758
648,10.836,442
649,10.853,423
650,10.870,510
651,10.886,583
652,10.903,511
653,10.919,506
654,10.936,878
655,10.953,510
656,10.969,508
657,10.986,588
658,11.003,520
659,11.019,510
660,11.036,567
661,11.052,692
662,11.069,510
663,11.086,589
664,11.102,675
665,11.119,631
666,11.136,871
667,11.152,568
668,11.169,510
669,11.186,632
670,11.202,501
671,11.219,575
672,11.235,510
673,11.252,512
674,11.269,792
675,11.285,535
676,11.302,586
677,11.319,579
678,11.335,539
679,11.352,558
680,11.369,509
681,11.385,726
682,11.402,440
683,11.418,538
684,11.435,563
685,11.452,567
686,11.468,615
687,11.485,769
688,11.502,508
689,11.518,529
690,11.535,428
691,11.551,517
692,11.568,388
693,11.585,458
694,11.601,556
695,11.618,669
696,11.635,499
697,11.651,510
698,11.668,599
699,11.685,706
700,11.701,665
701,11.718,581
702,11.734,514
703,11.751,582
704,11.768,672
705,11.784,544
706,11.801,606
707,11.818,832
708,11.834,613
709,11.851,676
710,11.868,722
711,11.884,615
712,11.901,510
713,11.917,826
714,11.934,516
715,11.951,510
716,11.967,777
717,11.984,510
718,12.001,510
719,12.017,544
720,12.034,663
721,12.050,596
722,12.067,510
723,12.084,462
724,12.100,486
725,12.117,587
726,12.134,510
727,12.150,510
728,12.167,894
729,12.184,555
730,12.200,535
731,12.217,549
732,12.233,562
733,12.250,474
734,12.267,510
735,12.283,463
736,12.300,510
737,12.317,694
738,12.333,540
739,12.350,510
740,12.367,510
741,12.383,510
742,12.400,554
743,12.416,510
744,12.433,643
745,12.450,533
746,12.466,687
747,12.483,646
748,12.500,544
749,12.516,611
750,12.533,481
751,12.549,658
752,12.566,510
753,12.583,459
754,12.599,477
755,12.616,508
756,12.633,521
757,12.649,537
758,12.666,454
759,12.683,510
760,12.699,529
761,12.716,516
762,12.732,510
763,12.749,483
764,12.766,567
765,12.782,517
766,12.799,510
767,12.816,532
768,12.832,553
769,12.849,510
770,12.866,524
771,12.882,510
772,12.899,513
773,12.915,493
774,12.932,464
775,12.949,513
776,12.965,483
777,12.982,765
778,12.999,542
779,13.015,581
780,13.032,510
781,13.049,518
782,13.065,510
783,13.082,510
784,13.098,582
785,13.115,510
786,13.132,668
787,13.148,494
788,13.165,632
789,13.182,525
790,13.198,502
791,13.215,599
792,13.231,510
793,13.248,510
794,13.265,641
795,13.281,512
796,13.298,434
797,13.315,448
798,13.331,632
799,13.348,546
800,13.365,502
801,13.381,510
802,13.398,510
803,13.414,734
804,13.431,552
805,13.448,639
806,13.464,581
807,13.481,1109
808,13.498,567
809,13.514,511
810,13.531,510
811,13.548,451
812,13.564,733
813,13.581,673
814,13.597,509
815,13.614,528
816,13.631,510
817,13.647,733
818,13.664,547
819,13.681,527
820,13.697,611
821,13.714,583
822,13.730,506
823,13.747,509
824,13.764,474
825,13.780,556
826,13.797,602
827,13.814,510
828,13.830,661
829,13.847,547
830,13.864,510
831,13.880,530
832,13.897,510
833,13.913,510
834,13.930,486
835,13.947,512
836,13.963,535
837,13.980,606
838,13.997,490
839,14.013,631
840,14.030,645
841,14.047,516
842,14.063,670
843,14.080,486
844,14.096,515
845,14.113,508
846,14.130,631
847,14.146,765
848,14.163,510
849,14.180,676
850,14.196,614
851,14.213,541
852,14.229,1175
853,14.246,510
854,14.263,513
855,14.279,510
856,14.296,741
857,14.313,598
858,14.329,586
859,14.346,742
860,14.363,742
861,14.379,808
862,14.396,897
863,14.412,917
864,14.429,968
865,14.446,1141
866,14.462,1270
867,14.479,931
868,14.496,1090
869,14.512,996
870,14.529,956
871,14.546,1043
872,14.562,1092
873,14.579,1053
874,14.595,1084
875,14.612,1115
876,14.629,915
877,14.645,738
878,14.662,1005
879,14.679,1048
880,14.695,1015
881,14.712,792
882,14.728,742
883,14.745,765
884,14.762,836
885,14.778,914
886,14.795,1152
887,14.812,1354
888,14.828,1654
889,14.845,2012
890,14.862,2706
891,14.878,3456
892,14.895,3387
893,14.911,4721
894,14.928,4977
895,14.945,5295
896,14.961,5649
897,14.978,6362
898,14.995,6681
899,15.011,7493
900,15.028,6750
901,15.045,7517
902,15.061,7402
903,15.078,7693
904,15.094,7739
905,15.111,8562
906,15.128,9541
907,15.144,7732
908,15.161,8234
909,15.178,8519
910,15.194,9265
911,15.211,8372
912,15.227,8650
913,15.244,8373
914,15.261,8553
915,15.277,7793
916,15.294,7926
917,15.311,8336
918,15.327,7560
919,15.344,7360
920,15.361,7718
921,15.377,7622
922,15.394,7307
923,15.410,8964
924,15.427,8585
925,15.444,11922
926,15.460,15656
927,15.477,18018
928,15.494,23832
929,15.510,30933
930,15.527,35047
931,15.544,43820
932,15.560,54083
933,15.577,60534
934,15.593,64098
935,15.610,74231
936,15.627,83363
937,15.643,92545
938,15.660,95460
939,15.677,107909
940,15.693,117946
941,15.710,127948
942,15.726,128982
943,15.743,138477
944,15.760,151103
945,15.776,154785
946,15.793,152844
947,15.810,167654
948,15.826,174753
949,15.843,173638
950,15.860,183777
951,15.876,199536
952,15.893,194235
953,15.909,195437
954,15.926,197040
955,15.943,197595
956,15.959,197651
957,15.976,202350
958,15.993,202705
959,16.009,191727
960,16.026,175573
961,16.043,167846
962,16.059,150728
963,16.076,132018
964,16.092,128621
965,16.109,108519
966,16.126,88164
967,16.142,80352
968,16.159,68029
969,16.176,52775
970,16.192,47310
971,16.209,39482
972,16.225,31293
973,16.242,25673
974,16.259,21085
975,16.275,19602
976,16.292,17963
977,16.309,15475
978,16.325,13351
979,16.342,13731
980,16.359,11504
981,16.375,8361
982,16.392,7879
983,16.408,7772
984,16.425,7993
985,16.442,7451
986,16.458,7817
987,16.475,7906
988,16.492,6928
989,16.508,8728
990,16.525,7293
991,16.542,8851
992,16.558,8845
993,16.575,10061
994,16.591,10699
995,16.608,9830
996,16.625,11927
997,16.641,10666
998,16.658,10107
999,16.675,10418
1000,16.691,10597
1001,16.708,12371
1002,16.724,14476
1003,16.741,18436
1004,16.758,19529
1005,16.774,22312
1006,16.791,28392
1007,16.808,24961
1008,16.824,32315
1009,16.841,30526
1010,16.858,32544
1011,16.874,35887
1012,16.891,32091
1013,16.907,42966
1014,16.924,39893
1015,16.941,38914
1016,16.957,40346
1017,16.974,41883
1018,16.991,40113
1019,17.007,39174
1020,17.024,39334
1021,17.041,40217
1022,17.057,41121
1023,17.074,42073
1024,17.090,42441
1025,17.107,41370
1026,17.124,37780
1027,17.140,43584
1028,17.157,39616
1029,17.174,43215
1030,17.190,38319
1031,17.207,41919
1032,17.223,39490
1033,17.240,39109
1034,17.257,37290
1035,17.273,38245
1036,17.290,36240
1037,17.307,31802
1038,17.323,35659
1039,17.340,34118
1040,17.357,26202
1041,17.373,24147
1042,17.390,20627
1043,17.406,18673
1044,17.423,15665
1045,17.440,14352
1046,17.456,11801
1047,17.473,10243
1048,17.490,9864
1049,17.506,8118
1050,17.523,7978
1051,17.540,6268
1052,17.556,4787
1053,17.573,4479
1054,17.589,4671
1055,17.606,3709
1056,17.623,3345
1057,17.639,3436
1058,17.656,3068
1059,17.673,3171
1060,17.689,2733
1061,17.706,2455
1062,17.722,2661
1063,17.739,2489
1064,17.756,1760
1065,17.772,1699
1066,17.789,1617
1067,17.806,1569
1068,17.822,1551
1069,17.839,1420
1070,17.856,1679
1071,17.872,1204
1072,17.889,1224
1073,17.905,1261
1074,17.922,1341
1075,17.939,1289
1076,17.955,1178
1077,17.972,1135
1078,17.989,1180
1079,18.005,1197
1080,18.022,1103
1081,18.039,1019
1082,18.055,1256
1083,18.072,1418
1084,18.088,1196
1085,18.105,1224
1086,18.122,1644
1087,18.138,1543
1088,18.155,1979
1089,18.172,2104
1090,18.188,2591
1091,18.205,3131
1092,18.221,4567
1093,18.238,4871
1094,18.255,6801
1095,18.271,8335
1096,18.288,10463
1097,18.305,10901
1098,18.321,11152
1099,18.338,12441
1100,18.355,13562
1101,18.371,12819
1102,18.388,14512
1103,18.404,15360
1104,18.421,16334
1105,18.438,17373
1106,18.454,16694
1107,18.471,17735
1108,18.488,19596
1109,18.504,21132
1110,18.521,17974
1111,18.538,19913
1112,18.554,19356
1113,18.571,19489
1114,18.587,23092
1115,18.604,19419
1116,18.621,20077
1117,18.637,19580
1118,18.654,19319
1119,18.671,20155
1120,18.687,19973
1121,18.704,17750
1122,18.720,19542
1123,18.737,15964
1124,18.754,18613
1125,18.770,16942
1126,18.787,18063
1127,18.804,17295
1128,18.820,16943
1129,18.837,15989
1130,18.854,16097
1131,18.870,14658
1132,18.887,14316
1133,18.903,13789
1134,18.920,13064
1135,18.937,12349
1136,18.953,12534
1137,18.970,10172
1138,18.987,13723
1139,19.003,10188
1140,19.020,9085
1141,19.037,8694
1142,19.053,8955
1143,19.070,8056
1144,19.086,9319
1145,19.103,8414
1146,19.120,5799
1147,19.136,6447
1148,19.153,5713
1149,19.170,4991
1150,19.186,4707
1151,19.203,4435
1152,19.219,5025
1153,19.236,4412
1154,19.253,5758
1155,19.269,5356
1156,19.286,5588
1157,19.303,5662
1158,19.319,5796
1159,19.336,4304
1160,19.353,4217
1161,19.369,6634
1162,19.386,6754
1163,19.402,4819
1164,19.419,5726
1165,19.436,5812
1166,19.452,5770
1167,19.469,6042
1168,19.486,5542
1169,19.502,6110
1170,19.519,5982
1171,19.535,5193
1172,19.552,6208
1173,19.569,5928
1174,19.585,5613
1175,19.602,5722
1176,19.619,4722
1177,19.635,5003
1178,19.652,4375
1179,19.669,4268
1180,19.685,5605
1181,19.702,3890
1182,19.718,4588
1183,19.735,2709
1184,19.752,2938
1185,19.768,2444
1186,19.785,2348
1187,19.802,1825
1188,19.818,1968
1189,19.835,1870
1190,19.852,1592
1191,19.868,2211
1192,19.885,1476
1193,19.901,1618
1194,19.918,1513
1195,19.935,1653
1196,19.951,2277
1197,19.968,1888
1198,19.985,1211
1199,20.001,1405
1200,20.018,1431
1201,20.034,1258
1202,20.051,1498
1203,20.068,1414
1204,20.084,1416
1205,20.101,1228
1206,20.118,1188
1207,20.134,1238
1208,20.151,1234
1209,20.168,1236
1210,20.184,1178
1211,20.201,1244
1212,20.217,1142
1213,20.234,1187
1214,20.251,1284
1215,20.267,1202
1216,20.284,1266
1217,20.301,1155
1218,20.317,1249
1219,20.334,1234
1220,20.351,1087
1221,20.367,985
1222,20.384,1018
1223,20.400,1316
1224,20.417,1085
1225,20.434,1102
1226,20.450,1254
1227,20.467,1205
1228,20.484,1071
1229,20.500,1859
1230,20.517,1093
1231,20.534,1079
1232,20.550,1027
1233,20.567,1067
1234,20.583,1057
1235,20.600,1157
1236,20.617,952
1237,20.633,1121
1238,20.650,1400
1239,20.667,1046
1240,20.683,1000
1241,20.700,905
1242,20.717,967
1243,20.733,1029
1244,20.750,1126
1245,20.766,928
1246,20.783,1112
1247,20.800,937
1248,20.816,1119
1249,20.833,1073
1250,20.850,1032
1251,20.866,910
1252,20.883,1074
1253,20.899,896
1254,20.916,921
1255,20.933,1066
1256,20.949,1046
1257,20.966,917
1258,20.983,1026
1259,20.999,929
1260,21.016,880
1261,21.033,996
1262,21.049,916
1263,21.066,1086
1264,21.082,874
1265,21.099,900
1266,21.116,859
1267,21.132,842
1268,21.149,1055
1269,21.166,1052
1270,21.182,868
1271,21.199,948
1272,21.216,901
1273,21.232,1042
1274,21.249,980
1275,21.265,984
1276,21.282,877
1277,21.299,1068
1278,21.315,919
1279,21.332,996
1280,21.349,1107
1281,21.365,1005
1282,21.382,1285
1283,21.398,1086
1284,21.415,1448
1285,21.432,1001
1286,21.448,967
1287,21.465,1207
1288,21.482,1070
1289,21.498,1007
1290,21.515,1181
1291,21.532,1025
1292,21.548,960
1293,21.565,1174
1294,21.581,982
1295,21.598,990
1296,21.615,1051
1297,21.631,946
1298,21.648,1049
1299,21.665,1015
1300,21.681,1114
1301,21.698,900
1302,21.715,972
1303,21.731,1061
1304,21.748,890
1305,21.764,1226
1306,21.781,1012
1307,21.798,1398
1308,21.814,1038
1309,21.831,1272
1310,21.848,1185
1311,21.864,1232
1312,21.881,1032
1313,21.897,1147
1314,21.914,1028
