#"+ BPC Scan nostir_50um_sp-r007.d "
#Point,X(Minutes),Y(Counts)
0,0.054,824
1,0.071,510
2,0.087,877
3,0.104,869
4,0.120,626
5,0.137,750
6,0.154,808
7,0.170,606
8,0.187,931
9,0.204,723
10,0.220,556
11,0.237,852
12,0.254,483
13,0.270,510
14,0.287,646
15,0.303,762
16,0.320,825
17,0.337,510
18,0.353,629
19,0.370,765
20,0.387,645
21,0.403,637
22,0.420,586
23,0.436,720
24,0.453,537
25,0.470,544
26,0.486,908
27,0.503,676
28,0.520,510
29,0.536,730
30,0.553,865
31,0.570,749
32,0.586,917
33,0.603,716
34,0.619,823
35,0.636,674
36,0.653,746
37,0.669,560
38,0.686,537
39,0.703,762
40,0.719,591
41,0.736,666
42,0.753,798
43,0.769,846
44,0.786,710
45,0.802,883
46,0.819,647
47,0.836,781
48,0.852,1288
49,0.869,894
50,0.886,591
51,0.902,598
52,0.919,664
53,0.935,694
54,0.952,649
55,0.969,783
56,0.985,502
57,1.002,745
58,1.019,458
59,1.035,543
60,1.052,654
61,1.069,752
62,1.085,979
63,1.102,734
64,1.118,516
65,1.135,707
66,1.152,991
67,1.168,518
68,1.185,750
69,1.202,627
70,1.218,1009
71,1.235,737
72,1.252,553
73,1.268,1100
74,1.285,633
75,1.301,536
76,1.318,763
77,1.335,849
78,1.351,637
79,1.368,755
80,1.385,667
81,1.401,724
82,1.418,786
83,1.434,725
84,1.451,757
85,1.468,765
86,1.484,934
87,1.501,783
88,1.518,1084
89,1.534,478
90,1.551,516
91,1.568,713
92,1.584,591
93,1.601,501
94,1.617,783
95,1.634,644
96,1.651,839
97,1.667,656
98,1.684,747
99,1.701,729
100,1.717,859
101,1.734,664
102,1.751,936
103,1.767,679
104,1.784,841
105,1.800,647
106,1.817,662
107,1.834,521
108,1.850,895
109,1.867,477
110,1.884,595
111,1.900,541
112,1.917,995
113,1.933,550
114,1.950,916
115,1.967,687
116,1.983,587
117,2.000,977
118,2.017,520
119,2.033,584
120,2.050,640
121,2.067,914
122,2.083,835
123,2.100,474
124,2.116,471
125,2.133,741
126,2.150,522
127,2.166,784
128,2.183,669
129,2.200,679
130,2.216,1018
131,2.233,711
132,2.250,520
133,2.266,887
134,2.283,713
135,2.299,557
136,2.316,510
137,2.333,560
138,2.349,797
139,2.366,641
140,2.383,907
141,2.399,728
142,2.416,694
143,2.432,649
144,2.449,896
145,2.466,578
146,2.482,432
147,2.499,539
148,2.516,752
149,2.532,821
150,2.549,607
151,2.566,736
152,2.582,536
153,2.599,756
154,2.615,527
155,2.632,798
156,2.649,572
157,2.665,471
158,2.682,523
159,2.699,580
160,2.715,510
161,2.732,759
162,2.749,959
163,2.765,661
164,2.782,644
165,2.798,539
166,2.815,781
167,2.832,1056
168,2.848,684
169,2.865,807
170,2.882,567
171,2.898,640
172,2.915,677
173,2.931,747
174,2.948,617
175,2.965,746
176,2.981,608
177,2.998,753
178,3.015,599
179,3.031,457
180,3.048,672
181,3.065,711
182,3.081,510
183,3.098,750
184,3.114,800
185,3.131,785
186,3.148,642
187,3.164,573
188,3.181,630
189,3.198,510
190,3.214,543
191,3.231,749
192,3.248,1046
193,3.264,749
194,3.281,524
195,3.297,530
196,3.314,621
197,3.331,753
198,3.347,733
199,3.364,615
200,3.381,628
201,3.397,730
202,3.414,674
203,3.430,901
204,3.447,563
205,3.464,909
206,3.480,524
207,3.497,641
208,3.514,649
209,3.530,827
210,3.547,596
211,3.564,534
212,3.580,740
213,3.597,705
214,3.613,611
215,3.630,528
216,3.647,1168
217,3.663,667
218,3.680,475
219,3.697,627
220,3.713,982
221,3.730,759
222,3.747,665
223,3.763,495
224,3.780,684
225,3.796,381
226,3.813,749
227,3.830,679
228,3.846,654
229,3.863,825
230,3.880,761
231,3.896,566
232,3.913,561
233,3.929,542
234,3.946,771
235,3.963,1009
236,3.979,459
237,3.996,663
238,4.013,590
239,4.029,488
240,4.046,654
241,4.063,726
242,4.079,584
243,4.096,661
244,4.112,559
245,4.129,926
246,4.146,751
247,4.162,727
248,4.179,768
249,4.196,686
250,4.212,479
251,4.229,602
252,4.246,706
253,4.262,603
254,4.279,779
255,4.295,758
256,4.312,579
257,4.329,599
258,4.345,582
259,4.362,575
260,4.379,689
261,4.395,510
262,4.412,881
263,4.428,732
264,4.445,589
265,4.462,579
266,4.478,999
267,4.495,624
268,4.512,678
269,4.528,663
270,4.545,561
271,4.562,510
272,4.578,515
273,4.595,710
274,4.611,905
275,4.628,599
276,4.645,835
277,4.661,995
278,4.678,744
279,4.695,555
280,4.711,614
281,4.728,1155
282,4.745,444
283,4.761,510
284,4.778,446
285,4.794,827
286,4.811,510
287,4.828,566
288,4.844,563
289,4.861,508
290,4.878,592
291,4.894,523
292,4.911,588
293,4.927,556
294,4.944,807
295,4.961,609
296,4.977,539
297,4.994,501
298,5.011,528
299,5.027,510
300,5.044,551
301,5.061,549
302,5.077,577
303,5.094,667
304,5.110,674
305,5.127,561
306,5.144,605
307,5.160,1005
308,5.177,489
309,5.194,871
310,5.210,742
311,5.227,687
312,5.244,522
313,5.260,571
314,5.277,637
315,5.293,1007
316,5.310,673
317,5.327,830
318,5.343,652
319,5.360,746
320,5.377,762
321,5.393,768
322,5.410,510
323,5.426,528
324,5.443,658
325,5.460,667
326,5.476,766
327,5.493,572
328,5.510,701
329,5.526,1106
330,5.543,999
331,5.560,766
332,5.576,1104
333,5.593,523
334,5.609,694
335,5.626,616
336,5.643,510
337,5.659,525
338,5.676,750
339,5.693,988
340,5.709,642
341,5.726,744
342,5.743,654
343,5.759,571
344,5.776,649
345,5.792,510
346,5.809,512
347,5.826,694
348,5.842,831
349,5.859,625
350,5.876,562
351,5.892,508
352,5.909,544
353,5.925,961
354,5.942,596
355,5.959,495
356,5.975,674
357,5.992,705
358,6.009,518
359,6.025,530
360,6.042,547
361,6.059,617
362,6.075,550
363,6.092,838
364,6.108,686
365,6.125,599
366,6.142,548
367,6.158,834
368,6.175,773
369,6.192,510
370,6.208,721
371,6.225,602
372,6.242,583
373,6.258,664
374,6.275,729
375,6.291,702
376,6.308,574
377,6.325,841
378,6.341,1101
379,6.358,512
380,6.375,540
381,6.391,631
382,6.408,947
383,6.424,653
384,6.441,704
385,6.458,539
386,6.474,515
387,6.491,747
388,6.508,528
389,6.524,623
390,6.541,1079
391,6.558,626
392,6.574,557
393,6.591,841
394,6.607,510
395,6.624,664
396,6.641,772
397,6.657,498
398,6.674,783
399,6.691,563
400,6.707,518
401,6.724,754
402,6.741,534
403,6.757,716
404,6.774,586
405,6.790,720
406,6.807,688
407,6.824,688
408,6.840,736
409,6.857,717
410,6.874,512
411,6.890,595
412,6.907,465
413,6.923,645
414,6.940,639
415,6.957,510
416,6.973,1051
417,6.990,496
418,7.007,552
419,7.023,693
420,7.040,633
421,7.057,629
422,7.073,850
423,7.090,694
424,7.106,674
425,7.123,711
426,7.140,677
427,7.156,562
428,7.173,712
429,7.190,565
430,7.206,510
431,7.223,835
432,7.240,673
433,7.256,771
434,7.273,1135
435,7.289,702
436,7.306,896
437,7.323,825
438,7.339,607
439,7.356,735
440,7.373,516
441,7.389,678
442,7.406,687
443,7.422,547
444,7.439,603
445,7.456,510
446,7.472,728
447,7.489,671
448,7.506,633
449,7.522,655
450,7.539,595
451,7.556,623
452,7.572,604
453,7.589,727
454,7.605,740
455,7.622,772
456,7.639,863
457,7.655,563
458,7.672,733
459,7.689,606
460,7.705,766
461,7.722,557
462,7.739,671
463,7.755,738
464,7.772,584
465,7.788,686
466,7.805,552
467,7.822,482
468,7.838,676
469,7.855,833
470,7.872,512
471,7.888,756
472,7.905,465
473,7.921,853
474,7.938,700
475,7.955,561
476,7.971,870
477,7.988,864
478,8.005,514
479,8.021,668
480,8.038,584
481,8.055,563
482,8.071,769
483,8.088,748
484,8.104,868
485,8.121,755
486,8.138,684
487,8.154,560
488,8.171,647
489,8.188,530
490,8.204,510
491,8.221,615
492,8.238,638
493,8.254,554
494,8.271,516
495,8.287,516
496,8.304,583
497,8.321,653
498,8.337,614
499,8.354,764
500,8.371,510
501,8.387,545
502,8.404,629
503,8.420,657
504,8.437,679
505,8.454,568
506,8.470,723
507,8.487,656
508,8.504,974
509,8.520,555
510,8.537,570
511,8.554,927
512,8.570,574
513,8.587,718
514,8.603,620
515,8.620,510
516,8.637,634
517,8.653,637
518,8.670,498
519,8.687,585
520,8.703,891
521,8.720,753
522,8.737,719
523,8.753,633
524,8.770,578
525,8.786,565
526,8.803,753
527,8.820,477
528,8.836,603
529,8.853,775
530,8.870,524
531,8.886,601
532,8.903,577
533,8.919,655
534,8.936,607
535,8.953,465
536,8.969,510
537,8.986,590
538,9.003,668
539,9.019,695
540,9.036,528
541,9.053,1071
542,9.069,718
543,9.086,629
544,9.102,502
545,9.119,556
546,9.136,811
547,9.152,542
548,9.169,772
549,9.186,530
550,9.202,529
551,9.219,1028
552,9.236,908
553,9.252,601
554,9.269,703
555,9.285,660
556,9.302,704
557,9.319,716
558,9.335,579
559,9.352,621
560,9.369,572
561,9.385,557
562,9.402,615
563,9.418,604
564,9.435,618
565,9.452,510
566,9.468,603
567,9.485,556
568,9.502,945
569,9.518,617
570,9.535,598
571,9.552,628
572,9.568,810
573,9.585,770
574,9.601,595
575,9.618,799
576,9.635,620
577,9.651,831
578,9.668,481
579,9.685,667
580,9.701,627
581,9.718,882
582,9.735,522
583,9.751,592
584,9.768,561
585,9.784,627
586,9.801,847
587,9.818,666
588,9.834,481
589,9.851,486
590,9.868,827
591,9.884,613
592,9.901,590
593,9.917,636
594,9.934,534
595,9.951,579
596,9.967,524
597,9.984,632
598,10.001,876
599,10.017,807
600,10.034,910
601,10.051,579
602,10.067,634
603,10.084,533
604,10.100,689
605,10.117,1078
606,10.134,801
607,10.150,769
608,10.167,710
609,10.184,553
610,10.200,637
611,10.217,513
612,10.234,866
613,10.250,579
614,10.267,746
615,10.283,585
616,10.300,525
617,10.317,567
618,10.333,802
619,10.350,1030
620,10.367,572
621,10.383,521
622,10.400,656
623,10.416,874
624,10.433,645
625,10.450,847
626,10.466,510
627,10.483,545
628,10.500,510
629,10.516,709
630,10.533,724
631,10.550,628
632,10.566,670
633,10.583,617
634,10.599,586
635,10.616,629
636,10.633,862
637,10.649,849
638,10.666,690
639,10.683,492
640,10.699,546
641,10.716,678
642,10.733,701
643,10.749,584
644,10.766,722
645,10.782,721
646,10.799,646
647,10.816,810
648,10.832,533
649,10.849,836
650,10.866,728
651,10.882,718
652,10.899,654
653,10.915,540
654,10.932,706
655,10.949,560
656,10.965,551
657,10.982,845
658,10.999,715
659,11.015,566
660,11.032,790
661,11.049,924
662,11.065,672
663,11.082,522
664,11.098,679
665,11.115,592
666,11.132,755
667,11.148,653
668,11.165,723
669,11.182,822
670,11.198,606
671,11.215,621
672,11.232,652
673,11.248,745
674,11.265,727
675,11.281,512
676,11.298,1089
677,11.315,565
678,11.331,1140
679,11.348,663
680,11.365,623
681,11.381,539
682,11.398,567
683,11.414,833
684,11.431,687
685,11.448,613
686,11.464,814
687,11.481,615
688,11.498,526
689,11.514,702
690,11.531,738
691,11.548,536
692,11.564,592
693,11.581,507
694,11.597,617
695,11.614,669
696,11.631,778
697,11.647,538
698,11.664,519
699,11.681,587
700,11.697,842
701,11.714,687
702,11.731,1040
703,11.747,858
704,11.764,540
705,11.780,645
706,11.797,729
707,11.814,680
708,11.830,579
709,11.847,503
710,11.864,531
711,11.880,548
712,11.897,762
713,11.913,548
714,11.930,771
715,11.947,1105
716,11.963,667
717,11.980,550
718,11.997,588
719,12.013,655
720,12.030,715
721,12.047,760
722,12.063,590
723,12.080,635
724,12.096,842
725,12.113,748
726,12.130,778
727,12.146,764
728,12.163,1004
729,12.180,558
730,12.196,841
731,12.213,527
732,12.230,631
733,12.246,877
734,12.263,1072
735,12.279,507
736,12.296,710
737,12.313,731
738,12.329,1041
739,12.346,1071
740,12.363,629
741,12.379,625
742,12.396,708
743,12.412,718
744,12.429,529
745,12.446,583
746,12.462,604
747,12.479,798
748,12.496,586
749,12.512,561
750,12.529,651
751,12.546,547
752,12.562,573
753,12.579,590
754,12.595,565
755,12.612,626
756,12.629,645
757,12.645,587
758,12.662,631
759,12.679,582
760,12.695,624
761,12.712,548
762,12.729,516
763,12.745,537
764,12.762,523
765,12.778,764
766,12.795,675
767,12.812,728
768,12.828,871
769,12.845,644
770,12.862,694
771,12.878,730
772,12.895,877
773,12.911,707
774,12.928,558
775,12.945,829
776,12.961,525
777,12.978,518
778,12.995,542
779,13.011,510
780,13.028,746
781,13.045,535
782,13.061,1013
783,13.078,660
784,13.094,681
785,13.111,657
786,13.128,536
787,13.144,575
788,13.161,842
789,13.178,626
790,13.194,582
791,13.211,568
792,13.227,808
793,13.244,572
794,13.261,645
795,13.277,609
796,13.294,714
797,13.311,710
798,13.327,1217
799,13.344,747
800,13.361,656
801,13.377,631
802,13.394,712
803,13.410,720
804,13.427,701
805,13.444,889
806,13.460,771
807,13.477,748
808,13.494,798
809,13.510,798
810,13.527,686
811,13.544,861
812,13.560,659
813,13.577,510
814,13.593,778
815,13.610,937
816,13.627,540
817,13.643,628
818,13.660,635
819,13.677,636
820,13.693,800
821,13.710,557
822,13.726,967
823,13.743,748
824,13.760,992
825,13.776,799
826,13.793,810
827,13.810,674
828,13.826,830
829,13.843,519
830,13.860,551
831,13.876,569
832,13.893,787
833,13.909,547
834,13.926,587
835,13.943,888
836,13.959,556
837,13.976,727
838,13.993,929
839,14.009,932
840,14.026,1067
841,14.043,688
842,14.059,522
843,14.076,682
844,14.092,691
845,14.109,711
846,14.126,510
847,14.142,1045
848,14.159,617
849,14.176,956
850,14.192,779
851,14.209,746
852,14.225,584
853,14.242,666
854,14.259,879
855,14.275,560
856,14.292,749
857,14.309,929
858,14.325,765
859,14.342,1056
860,14.359,840
861,14.375,1006
862,14.392,1111
863,14.408,1011
864,14.425,1253
865,14.442,1555
866,14.458,1251
867,14.475,1567
868,14.492,1292
869,14.508,1691
870,14.525,1585
871,14.542,1457
872,14.558,1231
873,14.575,1287
874,14.591,1278
875,14.608,1132
876,14.625,1099
877,14.641,1008
878,14.658,931
879,14.675,989
880,14.691,1050
881,14.708,967
882,14.724,978
883,14.741,1005
884,14.758,1103
885,14.774,1258
886,14.791,1411
887,14.808,1606
888,14.824,1944
889,14.841,2885
890,14.858,3196
891,14.874,4226
892,14.891,4267
893,14.907,5138
894,14.924,4780
895,14.941,5268
896,14.957,5488
897,14.974,6031
898,14.991,6041
899,15.007,6483
900,15.024,6568
901,15.041,6670
902,15.057,7504
903,15.074,7331
904,15.090,7389
905,15.107,7733
906,15.124,8373
907,15.140,8045
908,15.157,8721
909,15.174,8357
910,15.190,8770
911,15.207,8487
912,15.224,8384
913,15.240,8473
914,15.257,8189
915,15.273,7657
916,15.290,8662
917,15.307,7473
918,15.323,7781
919,15.340,7671
920,15.357,8282
921,15.373,7169
922,15.390,6886
923,15.407,7600
924,15.423,10989
925,15.440,14206
926,15.456,24980
927,15.473,32297
928,15.490,43397
929,15.506,53001
930,15.523,63327
931,15.540,76704
932,15.556,86872
933,15.573,104960
934,15.589,120695
935,15.606,136897
936,15.623,147839
937,15.639,154349
938,15.656,166418
939,15.673,171467
940,15.689,182318
941,15.706,202745
942,15.723,200649
943,15.739,202942
944,15.756,200907
945,15.772,220614
946,15.789,222423
947,15.806,230648
948,15.822,234638
949,15.839,249075
950,15.856,233033
951,15.872,237854
952,15.889,225043
953,15.906,225064
954,15.922,207274
955,15.939,192938
956,15.955,190768
957,15.972,165437
958,15.989,136515
959,16.005,114506
960,16.022,97850
961,16.039,79815
962,16.055,70370
963,16.072,60263
964,16.088,49906
965,16.105,40099
966,16.122,34259
967,16.138,32460
968,16.155,23927
969,16.172,23267
970,16.188,18186
971,16.205,16359
972,16.222,14723
973,16.238,13251
974,16.255,11202
975,16.271,11971
976,16.288,9927
977,16.305,8746
978,16.321,7988
979,16.338,7004
980,16.355,6865
981,16.371,8134
982,16.388,7670
983,16.405,7960
984,16.421,9057
985,16.438,7926
986,16.454,7400
987,16.471,7498
988,16.488,8601
989,16.504,8793
990,16.521,8677
991,16.538,10493
992,16.554,9357
993,16.571,11021
994,16.587,10060
995,16.604,11896
996,16.621,11242
997,16.637,11295
998,16.654,10451
999,16.671,10066
1000,16.687,9822
1001,16.704,12181
1002,16.721,14550
1003,16.737,20676
1004,16.754,22726
1005,16.770,25635
1006,16.787,34803
1007,16.804,37166
1008,16.820,41170
1009,16.837,42382
1010,16.854,42318
1011,16.870,47378
1012,16.887,48910
1013,16.904,45205
1014,16.920,46867
1015,16.937,56521
1016,16.953,50789
1017,16.970,52628
1018,16.987,50828
1019,17.003,52395
1020,17.020,52887
1021,17.037,51709
1022,17.053,51609
1023,17.070,49103
1024,17.086,51620
1025,17.103,55604
1026,17.120,51018
1027,17.136,52470
1028,17.153,51814
1029,17.170,53229
1030,17.186,50706
1031,17.203,50965
1032,17.220,49959
1033,17.236,52212
1034,17.253,49224
1035,17.269,42229
1036,17.286,39595
1037,17.303,42647
1038,17.319,34163
1039,17.336,32568
1040,17.353,31859
1041,17.369,27631
1042,17.386,23502
1043,17.403,21149
1044,17.419,18319
1045,17.436,15285
1046,17.452,18921
1047,17.469,12272
1048,17.486,10098
1049,17.502,9357
1050,17.519,8201
1051,17.536,6505
1052,17.552,5347
1053,17.569,5088
1054,17.585,3865
1055,17.602,3952
1056,17.619,2990
1057,17.635,3682
1058,17.652,3035
1059,17.669,3572
1060,17.685,2331
1061,17.702,2182
1062,17.719,2238
1063,17.735,2542
1064,17.752,2244
1065,17.768,1887
1066,17.785,1867
1067,17.802,1817
1068,17.818,1784
1069,17.835,1734
1070,17.852,2005
1071,17.868,1531
1072,17.885,1309
1073,17.902,1376
1074,17.918,1193
1075,17.935,1177
1076,17.951,1179
1077,17.968,1278
1078,17.985,1176
1079,18.001,1059
1080,18.018,1591
1081,18.035,1775
1082,18.051,1327
1083,18.068,1275
1084,18.084,1068
1085,18.101,1280
1086,18.118,1189
1087,18.134,1264
1088,18.151,1628
1089,18.168,1457
1090,18.184,1278
1091,18.201,1360
1092,18.218,1586
1093,18.234,1426
1094,18.251,1459
1095,18.267,1778
1096,18.284,1744
1097,18.301,2212
1098,18.317,2515
1099,18.334,4021
1100,18.351,4831
1101,18.367,5946
1102,18.384,9538
1103,18.401,9168
1104,18.417,11491
1105,18.434,13286
1106,18.450,15653
1107,18.467,16739
1108,18.484,17555
1109,18.500,19572
1110,18.517,21378
1111,18.534,20246
1112,18.550,20028
1113,18.567,21849
1114,18.583,26003
1115,18.600,23996
1116,18.617,23802
1117,18.633,24681
1118,18.650,23232
1119,18.667,23293
1120,18.683,23589
1121,18.700,26819
1122,18.717,24839
1123,18.733,24728
1124,18.750,23595
1125,18.766,23165
1126,18.783,26714
1127,18.800,24333
1128,18.816,23647
1129,18.833,22418
1130,18.850,22923
1131,18.866,21850
1132,18.883,21067
1133,18.900,21506
1134,18.916,19993
1135,18.933,17862
1136,18.949,18447
1137,18.966,15618
1138,18.983,15722
1139,18.999,15663
1140,19.016,13980
1141,19.033,14637
1142,19.049,13342
1143,19.066,12650
1144,19.082,12136
1145,19.099,11607
1146,19.116,10900
1147,19.132,9959
1148,19.149,9145
1149,19.166,9137
1150,19.182,9416
1151,19.199,7153
1152,19.216,8216
1153,19.232,5977
1154,19.249,6063
1155,19.265,5181
1156,19.282,5111
1157,19.299,4470
1158,19.315,4107
1159,19.332,5114
1160,19.349,3991
1161,19.365,4742
1162,19.382,5942
1163,19.399,4329
1164,19.415,5276
1165,19.432,4010
1166,19.448,4510
1167,19.465,4866
1168,19.482,4304
1169,19.498,4638
1170,19.515,5211
1171,19.532,5303
1172,19.548,4301
1173,19.565,4248
1174,19.581,5751
1175,19.598,6598
1176,19.615,4938
1177,19.631,6116
1178,19.648,5288
1179,19.665,4875
1180,19.681,5046
1181,19.698,5106
1182,19.715,5177
1183,19.731,3104
1184,19.748,3394
1185,19.764,3598
1186,19.781,2584
1187,19.798,3573
1188,19.814,2899
1189,19.831,2564
1190,19.848,2502
1191,19.864,2924
1192,19.881,1860
1193,19.898,1882
1194,19.914,1869
1195,19.931,2088
1196,19.947,2321
1197,19.964,1664
1198,19.981,1399
1199,19.997,1914
1200,20.014,1432
1201,20.031,1757
1202,20.047,1633
1203,20.064,1333
1204,20.080,1231
1205,20.097,1570
1206,20.114,1237
1207,20.130,1133
1208,20.147,1488
1209,20.164,1154
1210,20.180,1287
1211,20.197,1718
1212,20.214,1250
1213,20.230,1016
1214,20.247,1188
1215,20.263,1616
1216,20.280,1409
1217,20.297,1203
1218,20.313,1144
1219,20.330,1215
1220,20.347,1292
1221,20.363,1665
1222,20.380,1286
1223,20.397,1285
1224,20.413,1133
1225,20.430,1163
1226,20.446,1282
1227,20.463,1058
1228,20.480,1034
1229,20.496,1121
1230,20.513,1230
1231,20.530,1072
1232,20.546,1044
1233,20.563,1169
1234,20.579,1097
1235,20.596,1207
1236,20.613,1102
1237,20.629,1139
1238,20.646,1095
1239,20.663,1242
1240,20.679,1116
1241,20.696,1451
1242,20.713,1282
1243,20.729,1236
1244,20.746,1183
1245,20.762,996
1246,20.779,948
1247,20.796,1203
1248,20.812,1088
1249,20.829,1173
1250,20.846,1127
1251,20.862,1110
1252,20.879,969
1253,20.895,1017
1254,20.912,1053
1255,20.929,872
1256,20.945,953
1257,20.962,1189
1258,20.979,1565
1259,20.995,1336
1260,21.012,1022
1261,21.029,958
1262,21.045,1026
1263,21.062,1026
1264,21.078,862
1265,21.095,1082
1266,21.112,955
1267,21.128,1070
1268,21.145,896
1269,21.162,962
1270,21.178,881
1271,21.195,1238
1272,21.212,911
1273,21.228,889
1274,21.245,814
1275,21.261,1033
1276,21.278,1241
1277,21.295,979
1278,21.311,800
1279,21.328,1220
1280,21.345,936
1281,21.361,1088
1282,21.378,1310
1283,21.394,1298
1284,21.411,1085
1285,21.428,1215
1286,21.444,947
1287,21.461,973
1288,21.478,1046
1289,21.494,952
1290,21.511,998
1291,21.528,1046
1292,21.544,1066
1293,21.561,895
1294,21.577,1079
1295,21.594,1225
1296,21.611,1037
1297,21.627,1019
1298,21.644,1106
1299,21.661,1050
1300,21.677,1166
1301,21.694,930
1302,21.711,1033
1303,21.727,1140
1304,21.744,1027
1305,21.760,1383
1306,21.777,1008
1307,21.794,884
1308,21.810,967
1309,21.827,1282
1310,21.844,861
1311,21.860,953
1312,21.877,895
