#"+ BPC Scan nostir_50um_sp-r012.d "
#Point,X(Minutes),Y(Counts)
0,0.052,706
1,0.069,510
2,0.085,423
3,0.102,510
4,0.119,444
5,0.135,436
6,0.152,427
7,0.169,455
8,0.185,489
9,0.202,473
10,0.219,518
11,0.235,476
12,0.252,489
13,0.268,429
14,0.285,650
15,0.302,437
16,0.318,442
17,0.335,510
18,0.352,510
19,0.368,556
20,0.385,432
21,0.402,464
22,0.418,510
23,0.435,417
24,0.451,453
25,0.468,388
26,0.485,446
27,0.501,452
28,0.518,510
29,0.535,474
30,0.551,387
31,0.568,465
32,0.584,521
33,0.601,880
34,0.618,509
35,0.634,644
36,0.651,672
37,0.668,394
38,0.684,408
39,0.701,410
40,0.718,526
41,0.734,518
42,0.751,510
43,0.767,384
44,0.784,481
45,0.801,528
46,0.817,544
47,0.834,679
48,0.851,643
49,0.867,543
50,0.884,600
51,0.901,462
52,0.917,579
53,0.934,492
54,0.950,356
55,0.967,459
56,0.984,511
57,1.000,393
58,1.017,471
59,1.034,526
60,1.050,479
61,1.067,429
62,1.083,510
63,1.100,510
64,1.117,537
65,1.133,519
66,1.150,492
67,1.167,547
68,1.183,617
69,1.200,510
70,1.217,503
71,1.233,813
72,1.250,456
73,1.266,504
74,1.283,510
75,1.300,453
76,1.316,480
77,1.333,522
78,1.350,524
79,1.366,579
80,1.383,486
81,1.400,546
82,1.416,456
83,1.433,406
84,1.449,509
85,1.466,677
86,1.483,510
87,1.499,482
88,1.516,510
89,1.533,556
90,1.549,580
91,1.566,448
92,1.582,638
93,1.599,736
94,1.616,533
95,1.632,724
96,1.649,685
97,1.666,691
98,1.682,598
99,1.699,527
100,1.716,677
101,1.732,464
102,1.749,377
103,1.765,444
104,1.782,530
105,1.799,473
106,1.815,799
107,1.832,494
108,1.849,415
109,1.865,482
110,1.882,513
111,1.899,367
112,1.915,510
113,1.932,510
114,1.948,471
115,1.965,513
116,1.982,645
117,1.998,470
118,2.015,539
119,2.032,441
120,2.048,524
121,2.065,416
122,2.081,593
123,2.098,747
124,2.115,592
125,2.131,965
126,2.148,577
127,2.165,544
128,2.181,510
129,2.198,470
130,2.215,510
131,2.231,510
132,2.248,396
133,2.264,527
134,2.281,498
135,2.298,572
136,2.314,474
137,2.331,532
138,2.348,492
139,2.364,615
140,2.381,423
141,2.398,477
142,2.414,466
143,2.431,636
144,2.447,510
145,2.464,403
146,2.481,582
147,2.497,575
148,2.514,485
149,2.531,554
150,2.547,516
151,2.564,459
152,2.580,468
153,2.597,582
154,2.614,495
155,2.630,476
156,2.647,612
157,2.664,506
158,2.680,773
159,2.697,402
160,2.714,617
161,2.730,510
162,2.747,543
163,2.763,616
164,2.780,662
165,2.797,510
166,2.813,510
167,2.830,526
168,2.847,487
169,2.863,510
170,2.880,651
171,2.897,609
172,2.913,474
173,2.930,712
174,2.946,1033
175,2.963,646
176,2.980,510
177,2.996,589
178,3.013,1016
179,3.030,415
180,3.046,697
181,3.063,433
182,3.080,564
183,3.096,411
184,3.113,544
185,3.129,803
186,3.146,760
187,3.163,628
188,3.179,498
189,3.196,780
190,3.213,499
191,3.229,687
192,3.246,612
193,3.262,620
194,3.279,685
195,3.296,935
196,3.312,435
197,3.329,630
198,3.346,822
199,3.362,1644
200,3.379,1089
201,3.396,577
202,3.412,977
203,3.429,898
204,3.445,967
205,3.462,886
206,3.479,1245
207,3.495,749
208,3.512,643
209,3.529,543
210,3.545,932
211,3.562,637
212,3.579,590
213,3.595,719
214,3.612,611
215,3.628,816
216,3.645,698
217,3.662,594
218,3.678,605
219,3.695,522
220,3.712,630
221,3.728,582
222,3.745,523
223,3.761,705
224,3.778,534
225,3.795,686
226,3.811,584
227,3.828,483
228,3.845,652
229,3.861,780
230,3.878,479
231,3.895,518
232,3.911,671
233,3.928,452
234,3.944,692
235,3.961,409
236,3.978,378
237,3.994,639
238,4.011,478
239,4.028,607
240,4.044,1166
241,4.061,1016
242,4.078,870
243,4.094,937
244,4.111,535
245,4.127,658
246,4.144,507
247,4.161,358
248,4.177,636
249,4.194,478
250,4.211,481
251,4.227,504
252,4.244,519
253,4.260,774
254,4.277,509
255,4.294,619
256,4.310,510
257,4.327,661
258,4.344,615
259,4.360,702
260,4.377,555
261,4.394,580
262,4.410,519
263,4.427,498
264,4.443,561
265,4.460,644
266,4.477,548
267,4.493,536
268,4.510,525
269,4.527,421
270,4.543,668
271,4.560,558
272,4.577,556
273,4.593,446
274,4.610,488
275,4.626,493
276,4.643,600
277,4.660,579
278,4.676,530
279,4.693,775
280,4.710,510
281,4.726,610
282,4.743,510
283,4.759,468
284,4.776,641
285,4.793,652
286,4.809,603
287,4.826,576
288,4.843,539
289,4.859,553
290,4.876,1041
291,4.893,5309
292,4.909,6264
293,4.926,1973
294,4.942,933
295,4.959,1043
296,4.976,387
297,4.992,510
298,5.009,462
299,5.026,515
300,5.042,606
301,5.059,644
302,5.076,527
303,5.092,701
304,5.109,566
305,5.125,745
306,5.142,579
307,5.159,510
308,5.175,555
309,5.192,601
310,5.209,432
311,5.225,539
312,5.242,510
313,5.258,541
314,5.275,497
315,5.292,510
316,5.308,491
317,5.325,533
318,5.342,546
319,5.358,515
320,5.375,491
321,5.392,534
322,5.408,509
323,5.425,669
324,5.441,510
325,5.458,633
326,5.475,510
327,5.491,847
328,5.508,593
329,5.525,679
330,5.541,580
331,5.558,539
332,5.575,510
333,5.591,510
334,5.608,474
335,5.624,514
336,5.641,616
337,5.658,507
338,5.674,510
339,5.691,510
340,5.708,480
341,5.724,580
342,5.741,527
343,5.757,510
344,5.774,814
345,5.791,492
346,5.807,675
347,5.824,625
348,5.841,495
349,5.857,530
350,5.874,575
351,5.891,639
352,5.907,510
353,5.924,573
354,5.940,604
355,5.957,519
356,5.974,792
357,5.990,510
358,6.007,532
359,6.024,570
360,6.040,593
361,6.057,499
362,6.074,510
363,6.090,515
364,6.107,626
365,6.123,510
366,6.140,510
367,6.157,518
368,6.173,685
369,6.190,510
370,6.207,523
371,6.223,747
372,6.240,538
373,6.256,655
374,6.273,572
375,6.290,546
376,6.306,606
377,6.323,609
378,6.340,463
379,6.356,521
380,6.373,480
381,6.390,538
382,6.406,668
383,6.423,511
384,6.439,735
385,6.456,566
386,6.473,803
387,6.489,581
388,6.506,563
389,6.523,504
390,6.539,732
391,6.556,757
392,6.573,594
393,6.589,512
394,6.606,521
395,6.622,547
396,6.639,664
397,6.656,510
398,6.672,517
399,6.689,421
400,6.706,532
401,6.722,480
402,6.739,759
403,6.755,664
404,6.772,578
405,6.789,390
406,6.805,604
407,6.822,427
408,6.839,510
409,6.855,478
410,6.872,509
411,6.889,594
412,6.905,444
413,6.922,510
414,6.938,523
415,6.955,507
416,6.972,675
417,6.988,470
418,7.005,528
419,7.022,439
420,7.038,514
421,7.055,510
422,7.072,510
423,7.088,703
424,7.105,517
425,7.121,466
426,7.138,476
427,7.155,683
428,7.171,487
429,7.188,510
430,7.205,503
431,7.221,817
432,7.238,714
433,7.254,881
434,7.271,653
435,7.288,463
436,7.304,510
437,7.321,475
438,7.338,684
439,7.354,604
440,7.371,579
441,7.388,572
442,7.404,494
443,7.421,510
444,7.437,634
445,7.454,471
446,7.471,552
447,7.487,546
448,7.504,510
449,7.521,510
450,7.537,619
451,7.554,731
452,7.571,692
453,7.587,550
454,7.604,510
455,7.620,527
456,7.637,625
457,7.654,615
458,7.670,615
459,7.687,552
460,7.704,725
461,7.720,732
462,7.737,545
463,7.753,979
464,7.770,704
465,7.787,538
466,7.803,543
467,7.820,513
468,7.837,645
469,7.853,845
470,7.870,586
471,7.887,573
472,7.903,665
473,7.920,517
474,7.936,602
475,7.953,750
476,7.970,525
477,7.986,510
478,8.003,600
479,8.020,497
480,8.036,541
481,8.053,681
482,8.070,527
483,8.086,597
484,8.103,572
485,8.119,563
486,8.136,554
487,8.153,528
488,8.169,541
489,8.186,580
490,8.203,659
491,8.219,762
492,8.236,510
493,8.252,534
494,8.269,686
495,8.286,756
496,8.302,772
497,8.319,586
498,8.336,594
499,8.352,516
500,8.369,643
501,8.386,632
502,8.402,580
503,8.419,607
504,8.435,596
505,8.452,598
506,8.469,536
507,8.485,568
508,8.502,568
509,8.519,567
510,8.535,536
511,8.552,516
512,8.569,521
513,8.585,551
514,8.602,513
515,8.618,684
516,8.635,591
517,8.652,513
518,8.668,672
519,8.685,617
520,8.702,713
521,8.718,753
522,8.735,705
523,8.751,664
524,8.768,589
525,8.785,693
526,8.801,722
527,8.818,597
528,8.835,700
529,8.851,559
530,8.868,626
531,8.885,1016
532,8.901,686
533,8.918,768
534,8.934,608
535,8.951,519
536,8.968,645
537,8.984,566
538,9.001,518
539,9.018,560
540,9.034,511
541,9.051,694
542,9.068,524
543,9.084,515
544,9.101,531
545,9.117,676
546,9.134,585
547,9.151,589
548,9.167,517
549,9.184,566
550,9.201,510
551,9.217,526
552,9.234,588
553,9.250,532
554,9.267,530
555,9.284,863
556,9.300,671
557,9.317,640
558,9.334,577
559,9.350,617
560,9.367,589
561,9.384,744
562,9.400,616
563,9.417,510
564,9.433,547
565,9.450,512
566,9.467,511
567,9.483,529
568,9.500,551
569,9.517,673
570,9.533,531
571,9.550,1154
572,9.567,640
573,9.583,692
574,9.600,508
575,9.616,510
576,9.633,727
577,9.650,607
578,9.666,510
579,9.683,510
580,9.700,571
581,9.716,545
582,9.733,580
583,9.749,649
584,9.766,521
585,9.783,592
586,9.799,680
587,9.816,765
588,9.833,570
589,9.849,531
590,9.866,510
591,9.883,536
592,9.899,729
593,9.916,675
594,9.932,573
595,9.949,530
596,9.966,611
597,9.982,510
598,9.999,533
599,10.016,522
600,10.032,732
601,10.049,520
602,10.065,561
603,10.082,681
604,10.099,629
605,10.115,515
606,10.132,479
607,10.149,510
608,10.165,642
609,10.182,513
610,10.199,741
611,10.215,510
612,10.232,637
613,10.248,776
614,10.265,549
615,10.282,510
616,10.298,499
617,10.315,525
618,10.332,543
619,10.348,535
620,10.365,767
621,10.382,498
622,10.398,556
623,10.415,527
624,10.431,553
625,10.448,633
626,10.465,510
627,10.481,510
628,10.498,600
629,10.515,554
630,10.531,517
631,10.548,655
632,10.565,510
633,10.581,537
634,10.598,718
635,10.614,539
636,10.631,610
637,10.648,551
638,10.664,502
639,10.681,535
640,10.698,524
641,10.714,631
642,10.731,510
643,10.748,552
644,10.764,510
645,10.781,516
646,10.797,473
647,10.814,507
648,10.831,533
649,10.847,685
650,10.864,510
651,10.881,514
652,10.897,510
653,10.914,510
654,10.930,524
655,10.947,473
656,10.964,617
657,10.980,592
658,10.997,799
659,11.014,538
660,11.030,558
661,11.047,510
662,11.064,510
663,11.080,509
664,11.097,552
665,11.113,502
666,11.130,510
667,11.147,542
668,11.163,545
669,11.180,577
670,11.197,851
671,11.213,545
672,11.230,672
673,11.247,899
674,11.263,598
675,11.280,613
676,11.296,612
677,11.313,551
678,11.330,660
679,11.346,691
680,11.363,682
681,11.380,542
682,11.396,617
683,11.413,622
684,11.429,623
685,11.446,667
686,11.463,557
687,11.479,510
688,11.496,667
689,11.513,583
690,11.529,588
691,11.546,824
692,11.563,701
693,11.579,494
694,11.596,887
695,11.612,742
696,11.629,719
697,11.646,545
698,11.662,573
699,11.679,766
700,11.696,510
701,11.712,510
702,11.729,543
703,11.746,510
704,11.762,513
705,11.779,611
706,11.795,752
707,11.812,510
708,11.829,535
709,11.845,488
710,11.862,686
711,11.879,510
712,11.895,570
713,11.912,509
714,11.928,539
715,11.945,595
716,11.962,617
717,11.978,519
718,11.995,717
719,12.012,701
720,12.028,517
721,12.045,542
722,12.062,514
723,12.078,450
724,12.095,510
725,12.111,506
726,12.128,442
727,12.145,522
728,12.161,558
729,12.178,715
730,12.195,532
731,12.211,676
732,12.228,478
733,12.245,532
734,12.261,648
735,12.278,765
736,12.294,760
737,12.311,510
738,12.328,475
739,12.344,510
740,12.361,569
741,12.378,510
742,12.394,510
743,12.411,716
744,12.427,511
745,12.444,548
746,12.461,511
747,12.477,765
748,12.494,510
749,12.511,598
750,12.527,471
751,12.544,818
752,12.561,784
753,12.577,531
754,12.594,528
755,12.610,569
756,12.627,511
757,12.644,536
758,12.660,540
759,12.677,626
760,12.694,688
761,12.710,640
762,12.727,519
763,12.744,535
764,12.760,537
765,12.777,523
766,12.793,508
767,12.810,536
768,12.827,628
769,12.843,544
770,12.860,620
771,12.877,518
772,12.893,556
773,12.910,580
774,12.926,536
775,12.943,510
776,12.960,685
777,12.976,558
778,12.993,636
779,13.010,844
780,13.026,510
781,13.043,510
782,13.060,548
783,13.076,514
784,13.093,510
785,13.109,682
786,13.126,553
787,13.143,510
788,13.159,546
789,13.176,510
790,13.193,524
791,13.209,559
792,13.226,631
793,13.243,515
794,13.259,529
795,13.276,522
796,13.292,424
797,13.309,494
798,13.326,582
799,13.342,586
800,13.359,510
801,13.376,567
802,13.392,689
803,13.409,533
804,13.425,510
805,13.442,714
806,13.459,651
807,13.475,469
808,13.492,628
809,13.509,557
810,13.525,512
811,13.542,660
812,13.559,510
813,13.575,543
814,13.592,704
815,13.608,618
816,13.625,553
817,13.642,859
818,13.658,510
819,13.675,627
820,13.692,895
821,13.708,580
822,13.725,520
823,13.742,578
824,13.758,510
825,13.775,516
826,13.791,510
827,13.808,510
828,13.825,526
829,13.841,613
830,13.858,691
831,13.875,583
832,13.891,531
833,13.908,801
834,13.924,510
835,13.941,622
836,13.958,510
837,13.974,824
838,13.991,653
839,14.008,510
840,14.024,551
841,14.041,525
842,14.058,619
843,14.074,609
844,14.091,513
845,14.107,1011
846,14.124,855
847,14.141,714
848,14.157,517
849,14.174,533
850,14.191,510
851,14.207,526
852,14.224,755
853,14.241,608
854,14.257,954
855,14.274,535
856,14.290,671
857,14.307,720
858,14.324,800
859,14.340,782
860,14.357,590
861,14.374,1228
862,14.390,1245
863,14.407,963
864,14.423,1156
865,14.440,1370
866,14.457,975
867,14.473,1157
868,14.490,1130
869,14.507,1067
870,14.523,994
871,14.540,1075
872,14.557,939
873,14.573,1161
874,14.590,1096
875,14.606,875
876,14.623,913
877,14.640,715
878,14.656,900
879,14.673,781
880,14.690,768
881,14.706,1079
882,14.723,984
883,14.740,931
884,14.756,1072
885,14.773,1344
886,14.789,1407
887,14.806,2082
888,14.823,2181
889,14.839,2623
890,14.856,3308
891,14.873,4684
892,14.889,4242
893,14.906,5185
894,14.922,5201
895,14.939,5492
896,14.956,5553
897,14.972,6237
898,14.989,5926
899,15.006,6055
900,15.022,6384
901,15.039,6352
902,15.056,6863
903,15.072,7566
904,15.089,7750
905,15.105,7789
906,15.122,8041
907,15.139,8210
908,15.155,7883
909,15.172,8043
910,15.189,8137
911,15.205,7869
912,15.222,8064
913,15.239,8763
914,15.255,8003
915,15.272,7872
916,15.288,8736
917,15.305,8108
918,15.322,8268
919,15.338,8087
920,15.355,7674
921,15.372,7838
922,15.388,7595
923,15.405,7622
924,15.421,7466
925,15.438,8914
926,15.455,14844
927,15.471,19664
928,15.488,25979
929,15.505,37114
930,15.521,44247
931,15.538,48997
932,15.555,59999
933,15.571,64487
934,15.588,71207
935,15.604,83055
936,15.621,94652
937,15.638,101756
938,15.654,108340
939,15.671,119058
940,15.688,124892
941,15.704,128231
942,15.721,139471
943,15.738,142675
944,15.754,160436
945,15.771,158325
946,15.787,165287
947,15.804,175511
948,15.821,179346
949,15.837,178579
950,15.854,189886
951,15.871,191253
952,15.887,194435
953,15.904,206633
954,15.920,209542
955,15.937,199019
956,15.954,212011
957,15.970,193091
958,15.987,192135
959,16.004,184231
960,16.020,170018
961,16.037,152698
962,16.054,135145
963,16.070,120544
964,16.087,108786
965,16.103,94166
966,16.120,76479
967,16.137,68048
968,16.153,57605
969,16.170,53789
970,16.187,43900
971,16.203,38003
972,16.220,30406
973,16.237,27441
974,16.253,22406
975,16.270,20726
976,16.286,16473
977,16.303,15842
978,16.320,14907
979,16.336,12037
980,16.353,10993
981,16.370,8895
982,16.386,8980
983,16.403,7580
984,16.419,7195
985,16.436,7134
986,16.453,7516
987,16.469,7718
988,16.486,7393
989,16.503,7564
990,16.519,6845
991,16.536,7545
992,16.553,10365
993,16.569,9570
994,16.586,10037
995,16.602,9135
996,16.619,10063
997,16.636,11780
998,16.652,10378
999,16.669,11390
1000,16.686,11449
1001,16.702,11925
1002,16.719,9598
1003,16.736,12955
1004,16.752,14885
1005,16.769,19000
1006,16.785,22163
1007,16.802,23588
1008,16.819,25012
1009,16.835,26914
1010,16.852,32424
1011,16.869,34478
1012,16.885,35044
1013,16.902,32428
1014,16.918,39901
1015,16.935,36475
1016,16.952,38781
1017,16.968,39199
1018,16.985,39172
1019,17.002,38935
1020,17.018,46085
1021,17.035,42209
1022,17.052,39588
1023,17.068,42819
1024,17.085,38853
1025,17.101,44402
1026,17.118,39378
1027,17.135,45706
1028,17.151,42669
1029,17.168,43141
1030,17.185,44044
1031,17.201,40969
1032,17.218,42731
1033,17.234,38353
1034,17.251,38031
1035,17.268,36724
1036,17.284,36231
1037,17.301,36338
1038,17.318,34234
1039,17.334,27117
1040,17.351,26055
1041,17.368,23363
1042,17.384,22223
1043,17.401,18361
1044,17.417,15087
1045,17.434,15505
1046,17.451,11466
1047,17.467,11244
1048,17.484,9171
1049,17.501,7727
1050,17.517,6890
1051,17.534,5724
1052,17.551,4763
1053,17.567,4460
1054,17.584,4546
1055,17.600,3644
1056,17.617,3295
1057,17.634,3081
1058,17.650,2543
1059,17.667,2403
1060,17.684,2054
1061,17.700,2118
1062,17.717,1932
1063,17.733,2176
1064,17.750,1639
1065,17.767,1729
1066,17.783,1764
1067,17.800,1423
1068,17.817,1421
1069,17.833,1433
1070,17.850,1224
1071,17.867,1084
1072,17.883,1368
1073,17.900,1177
1074,17.916,1047
1075,17.933,1135
1076,17.950,1249
1077,17.966,1168
1078,17.983,1185
1079,18.000,1252
1080,18.016,1094
1081,18.033,1061
1082,18.050,1326
1083,18.066,1309
1084,18.083,1251
1085,18.099,1275
1086,18.116,1243
1087,18.133,1890
1088,18.149,1809
1089,18.166,2067
1090,18.183,2918
1091,18.199,2704
1092,18.216,3704
1093,18.233,4227
1094,18.249,5286
1095,18.266,6857
1096,18.282,7036
1097,18.299,7996
1098,18.316,10614
1099,18.332,12397
1100,18.349,13938
1101,18.366,12497
1102,18.382,16082
1103,18.399,14735
1104,18.416,15832
1105,18.432,17722
1106,18.449,18083
1107,18.465,18612
1108,18.482,20104
1109,18.499,18748
1110,18.515,21471
1111,18.532,18857
1112,18.549,20746
1113,18.565,21784
1114,18.582,20325
1115,18.598,20220
1116,18.615,19315
1117,18.632,20766
1118,18.648,17477
1119,18.665,19191
1120,18.682,19283
1121,18.698,18142
1122,18.715,18558
1123,18.732,20787
1124,18.748,19346
1125,18.765,17667
1126,18.781,18656
1127,18.798,17104
1128,18.815,16735
1129,18.831,14176
1130,18.848,16329
1131,18.865,19022
1132,18.881,14145
1133,18.898,12343
1134,18.915,12992
1135,18.931,13634
1136,18.948,10371
1137,18.964,10089
1138,18.981,11605
1139,18.998,10745
1140,19.014,10456
1141,19.031,7731
1142,19.048,7859
1143,19.064,7834
1144,19.081,6903
1145,19.097,7052
1146,19.114,5443
1147,19.131,5637
1148,19.147,5395
1149,19.164,4655
1150,19.181,5054
1151,19.197,4604
1152,19.214,4569
1153,19.231,3729
1154,19.247,4426
1155,19.264,4069
1156,19.280,6052
1157,19.297,4710
1158,19.314,4644
1159,19.330,6342
1160,19.347,5941
1161,19.364,4480
1162,19.380,4904
1163,19.397,3919
1164,19.414,4746
1165,19.430,3840
1166,19.447,4555
1167,19.463,5803
1168,19.480,5201
1169,19.497,4749
1170,19.513,4413
1171,19.530,4473
1172,19.547,4151
1173,19.563,4863
1174,19.580,4502
1175,19.596,5520
1176,19.613,3756
1177,19.630,3325
1178,19.646,2949
1179,19.663,4586
1180,19.680,3442
1181,19.696,3618
1182,19.713,3183
1183,19.730,2616
1184,19.746,2333
1185,19.763,2137
1186,19.779,2384
1187,19.796,1696
1188,19.813,1901
1189,19.829,1965
1190,19.846,1656
1191,19.863,1925
1192,19.879,1518
1193,19.896,1904
1194,19.913,1286
1195,19.929,1235
1196,19.946,1527
1197,19.962,1204
1198,19.979,1325
1199,19.996,1339
1200,20.012,1436
1201,20.029,1351
1202,20.046,1403
1203,20.062,1658
1204,20.079,1272
1205,20.095,1172
1206,20.112,1634
1207,20.129,1302
1208,20.145,1249
1209,20.162,985
1210,20.179,1161
1211,20.195,1165
1212,20.212,1261
1213,20.229,1291
1214,20.245,1345
1215,20.262,1182
1216,20.278,1100
1217,20.295,1270
1218,20.312,1158
1219,20.328,1043
1220,20.345,1276
1221,20.362,1092
1222,20.378,1103
1223,20.395,1292
1224,20.412,1093
1225,20.428,1434
1226,20.445,1128
1227,20.461,1084
1228,20.478,1161
1229,20.495,1107
1230,20.511,1221
1231,20.528,1158
1232,20.545,1108
1233,20.561,1040
1234,20.578,970
1235,20.594,955
1236,20.611,1054
1237,20.628,998
1238,20.644,1089
1239,20.661,1243
1240,20.678,1002
1241,20.694,937
1242,20.711,1016
1243,20.728,1079
1244,20.744,914
1245,20.761,1075
1246,20.777,1015
1247,20.794,859
1248,20.811,1043
1249,20.827,939
1250,20.844,1074
1251,20.861,791
1252,20.877,1054
1253,20.894,1038
1254,20.911,820
1255,20.927,866
1256,20.944,1026
1257,20.960,1012
1258,20.977,995
1259,20.994,1020
1260,21.010,810
1261,21.027,920
1262,21.044,971
1263,21.060,801
1264,21.077,967
1265,21.093,886
1266,21.110,873
1267,21.127,956
1268,21.143,803
1269,21.160,980
1270,21.177,1078
1271,21.193,1036
1272,21.210,1022
1273,21.227,857
1274,21.243,852
1275,21.260,983
1276,21.276,1064
1277,21.293,964
1278,21.310,1050
1279,21.326,1347
1280,21.343,954
1281,21.360,967
1282,21.376,958
1283,21.393,892
1284,21.410,1104
1285,21.426,1260
1286,21.443,1023
1287,21.459,1023
1288,21.476,1145
1289,21.493,1178
1290,21.509,1035
1291,21.526,1029
1292,21.543,981
1293,21.559,1088
1294,21.576,1045
1295,21.592,1035
1296,21.609,937
1297,21.626,1237
1298,21.642,1093
1299,21.659,1045
1300,21.676,1304
1301,21.692,1029
1302,21.709,1244
1303,21.726,952
1304,21.742,1018
1305,21.759,1253
1306,21.775,1013
1307,21.792,1099
1308,21.809,1072
1309,21.825,1233
1310,21.842,1147
1311,21.859,1307
1312,21.875,1214
1313,21.892,1352
1314,21.909,1114
