#"+ BPC Scan nostir_50um_sp-r011.d "
#Point,X(Minutes),Y(Counts)
0,0.061,490
1,0.077,459
2,0.094,516
3,0.111,584
4,0.127,913
5,0.144,579
6,0.160,510
7,0.177,485
8,0.194,906
9,0.210,979
10,0.227,707
11,0.244,793
12,0.260,684
13,0.277,904
14,0.294,622
15,0.310,617
16,0.327,673
17,0.343,487
18,0.360,622
19,0.377,622
20,0.393,469
21,0.410,479
22,0.427,487
23,0.443,470
24,0.460,470
25,0.477,531
26,0.493,618
27,0.510,520
28,0.526,510
29,0.543,565
30,0.560,424
31,0.576,443
32,0.593,438
33,0.610,649
34,0.626,424
35,0.643,728
36,0.659,567
37,0.676,489
38,0.693,472
39,0.709,510
40,0.726,701
41,0.743,644
42,0.759,568
43,0.776,573
44,0.793,510
45,0.809,510
46,0.826,379
47,0.842,471
48,0.859,617
49,0.876,576
50,0.892,510
51,0.909,526
52,0.926,431
53,0.942,541
54,0.959,510
55,0.976,518
56,0.992,396
57,1.009,502
58,1.025,439
59,1.042,520
60,1.059,591
61,1.075,707
62,1.092,698
63,1.109,518
64,1.125,510
65,1.142,510
66,1.159,659
67,1.175,692
68,1.192,463
69,1.208,619
70,1.225,594
71,1.242,668
72,1.258,510
73,1.275,627
74,1.292,782
75,1.308,862
76,1.325,583
77,1.341,502
78,1.358,663
79,1.375,614
80,1.391,802
81,1.408,510
82,1.425,441
83,1.441,545
84,1.458,556
85,1.475,518
86,1.491,563
87,1.508,510
88,1.524,510
89,1.541,589
90,1.558,624
91,1.574,522
92,1.591,510
93,1.608,510
94,1.624,566
95,1.641,494
96,1.658,551
97,1.674,510
98,1.691,460
99,1.707,460
100,1.724,605
101,1.741,505
102,1.757,524
103,1.774,515
104,1.791,965
105,1.807,612
106,1.824,458
107,1.840,426
108,1.857,510
109,1.874,633
110,1.890,510
111,1.907,583
112,1.924,510
113,1.940,538
114,1.957,579
115,1.974,533
116,1.990,510
117,2.007,485
118,2.023,546
119,2.040,515
120,2.057,488
121,2.073,486
122,2.090,483
123,2.107,652
124,2.123,511
125,2.140,568
126,2.157,487
127,2.173,424
128,2.190,510
129,2.206,465
130,2.223,461
131,2.240,443
132,2.256,541
133,2.273,445
134,2.290,441
135,2.306,499
136,2.323,586
137,2.339,510
138,2.356,681
139,2.373,503
140,2.389,652
141,2.406,567
142,2.423,683
143,2.439,634
144,2.456,852
145,2.473,685
146,2.489,708
147,2.506,510
148,2.522,511
149,2.539,746
150,2.556,737
151,2.572,458
152,2.589,522
153,2.606,564
154,2.622,571
155,2.639,697
156,2.656,512
157,2.672,493
158,2.689,592
159,2.705,607
160,2.722,763
161,2.739,439
162,2.755,503
163,2.772,542
164,2.789,610
165,2.805,428
166,2.822,552
167,2.838,510
168,2.855,463
169,2.872,511
170,2.888,468
171,2.905,442
172,2.922,671
173,2.938,1076
174,2.955,720
175,2.972,1110
176,2.988,957
177,3.005,701
178,3.021,482
179,3.038,656
180,3.055,643
181,3.071,483
182,3.088,983
183,3.105,540
184,3.121,743
185,3.138,587
186,3.155,553
187,3.171,721
188,3.188,507
189,3.204,870
190,3.221,520
191,3.238,510
192,3.254,487
193,3.271,583
194,3.288,857
195,3.304,569
196,3.321,688
197,3.338,556
198,3.354,470
199,3.371,906
200,3.387,472
201,3.404,700
202,3.421,673
203,3.437,571
204,3.454,535
205,3.471,466
206,3.487,541
207,3.504,485
208,3.520,510
209,3.537,510
210,3.554,548
211,3.570,765
212,3.587,549
213,3.604,502
214,3.620,582
215,3.637,423
216,3.654,468
217,3.670,550
218,3.687,722
219,3.703,560
220,3.720,479
221,3.737,741
222,3.753,496
223,3.770,568
224,3.787,861
225,3.803,510
226,3.820,642
227,3.837,511
228,3.853,431
229,3.870,554
230,3.886,545
231,3.903,503
232,3.920,510
233,3.936,483
234,3.953,789
235,3.970,597
236,3.986,649
237,4.003,548
238,4.019,585
239,4.036,397
240,4.053,468
241,4.069,795
242,4.086,528
243,4.103,515
244,4.119,472
245,4.136,503
246,4.153,461
247,4.169,514
248,4.186,465
249,4.202,737
250,4.219,507
251,4.236,602
252,4.252,477
253,4.269,471
254,4.286,397
255,4.302,453
256,4.319,525
257,4.336,510
258,4.352,790
259,4.369,360
260,4.385,1024
261,4.402,746
262,4.419,597
263,4.435,450
264,4.452,576
265,4.469,612
266,4.485,510
267,4.502,458
268,4.518,491
269,4.535,720
270,4.552,660
271,4.568,525
272,4.585,506
273,4.602,640
274,4.618,482
275,4.635,527
276,4.652,581
277,4.668,542
278,4.685,751
279,4.701,771
280,4.718,581
281,4.735,510
282,4.751,644
283,4.768,535
284,4.785,565
285,4.801,517
286,4.818,535
287,4.835,513
288,4.851,505
289,4.868,766
290,4.884,560
291,4.901,588
292,4.918,491
293,4.934,677
294,4.951,510
295,4.968,732
296,4.984,510
297,5.001,731
298,5.017,530
299,5.034,530
300,5.051,510
301,5.067,435
302,5.084,630
303,5.101,510
304,5.117,510
305,5.134,510
306,5.151,443
307,5.167,591
308,5.184,608
309,5.200,632
310,5.217,551
311,5.234,498
312,5.250,523
313,5.267,554
314,5.284,612
315,5.300,510
316,5.317,723
317,5.334,539
318,5.350,601
319,5.367,837
320,5.383,509
321,5.400,529
322,5.417,555
323,5.433,489
324,5.450,510
325,5.467,530
326,5.483,510
327,5.500,510
328,5.516,562
329,5.533,510
330,5.550,510
331,5.566,410
332,5.583,512
333,5.600,512
334,5.616,426
335,5.633,472
336,5.650,542
337,5.666,696
338,5.683,540
339,5.699,552
340,5.716,484
341,5.733,695
342,5.749,510
343,5.766,606
344,5.783,534
345,5.799,510
346,5.816,424
347,5.833,570
348,5.849,624
349,5.866,789
350,5.882,481
351,5.899,454
352,5.916,492
353,5.932,963
354,5.949,520
355,5.966,568
356,5.982,889
357,5.999,739
358,6.015,599
359,6.032,510
360,6.049,521
361,6.065,494
362,6.082,558
363,6.099,457
364,6.115,477
365,6.132,443
366,6.149,952
367,6.165,711
368,6.182,523
369,6.198,510
370,6.215,577
371,6.232,635
372,6.248,422
373,6.265,525
374,6.282,617
375,6.298,548
376,6.315,483
377,6.332,785
378,6.348,481
379,6.365,682
380,6.381,507
381,6.398,836
382,6.415,510
383,6.431,607
384,6.448,560
385,6.465,506
386,6.481,592
387,6.498,498
388,6.514,569
389,6.531,611
390,6.548,463
391,6.564,653
392,6.581,434
393,6.598,627
394,6.614,510
395,6.631,454
396,6.648,510
397,6.664,601
398,6.681,406
399,6.697,415
400,6.714,571
401,6.731,467
402,6.747,495
403,6.764,574
404,6.781,510
405,6.797,593
406,6.814,710
407,6.831,544
408,6.847,608
409,6.864,723
410,6.880,487
411,6.897,702
412,6.914,529
413,6.930,528
414,6.947,609
415,6.964,510
416,6.980,581
417,6.997,455
418,7.013,579
419,7.030,703
420,7.047,512
421,7.063,494
422,7.080,475
423,7.097,461
424,7.113,510
425,7.130,720
426,7.147,428
427,7.163,455
428,7.180,550
429,7.196,577
430,7.213,739
431,7.230,510
432,7.246,507
433,7.263,499
434,7.280,526
435,7.296,589
436,7.313,452
437,7.330,434
438,7.346,395
439,7.363,469
440,7.379,823
441,7.396,510
442,7.413,606
443,7.429,398
444,7.446,510
445,7.463,510
446,7.479,500
447,7.496,511
448,7.512,531
449,7.529,535
450,7.546,673
451,7.562,514
452,7.579,526
453,7.596,430
454,7.612,564
455,7.629,695
456,7.646,510
457,7.662,488
458,7.679,528
459,7.695,626
460,7.712,879
461,7.729,608
462,7.745,510
463,7.762,641
464,7.779,598
465,7.795,640
466,7.812,579
467,7.829,510
468,7.845,510
469,7.862,524
470,7.878,791
471,7.895,409
472,7.912,509
473,7.928,569
474,7.945,493
475,7.962,492
476,7.978,430
477,7.995,357
478,8.011,511
479,8.028,775
480,8.045,715
481,8.061,480
482,8.078,491
483,8.095,666
484,8.111,491
485,8.128,482
486,8.145,496
487,8.161,689
488,8.178,510
489,8.194,748
490,8.211,600
491,8.228,482
492,8.244,909
493,8.261,569
494,8.278,510
495,8.294,599
496,8.311,348
497,8.328,690
498,8.344,546
499,8.361,500
500,8.377,474
501,8.394,510
502,8.411,488
503,8.427,707
504,8.444,479
505,8.461,511
506,8.477,510
507,8.494,582
508,8.510,512
509,8.527,730
510,8.544,484
511,8.560,1183
512,8.577,482
513,8.594,588
514,8.610,730
515,8.627,587
516,8.644,478
517,8.660,478
518,8.677,653
519,8.693,750
520,8.710,454
521,8.727,515
522,8.743,597
523,8.760,532
524,8.777,499
525,8.793,556
526,8.810,469
527,8.827,732
528,8.843,611
529,8.860,555
530,8.876,599
531,8.893,584
532,8.910,439
533,8.926,510
534,8.943,510
535,8.960,428
536,8.976,516
537,8.993,518
538,9.009,485
539,9.026,608
540,9.043,652
541,9.059,792
542,9.076,609
543,9.093,624
544,9.109,594
545,9.126,954
546,9.143,510
547,9.159,658
548,9.176,520
549,9.192,497
550,9.209,441
551,9.226,900
552,9.242,549
553,9.259,369
554,9.276,524
555,9.292,561
556,9.309,467
557,9.326,527
558,9.342,510
559,9.359,454
560,9.375,482
561,9.392,544
562,9.409,621
563,9.425,510
564,9.442,609
565,9.459,453
566,9.475,510
567,9.492,475
568,9.508,485
569,9.525,868
570,9.542,540
571,9.558,532
572,9.575,512
573,9.592,633
574,9.608,410
575,9.625,559
576,9.642,512
577,9.658,510
578,9.675,718
579,9.691,600
580,9.708,595
581,9.725,595
582,9.741,495
583,9.758,462
584,9.775,690
585,9.791,969
586,9.808,557
587,9.825,534
588,9.841,459
589,9.858,517
590,9.874,510
591,9.891,515
592,9.908,649
593,9.924,510
594,9.941,409
595,9.958,418
596,9.974,561
597,9.991,653
598,10.007,614
599,10.024,510
600,10.041,519
601,10.057,437
602,10.074,620
603,10.091,561
604,10.107,510
605,10.124,546
606,10.141,891
607,10.157,454
608,10.174,703
609,10.190,510
610,10.207,700
611,10.224,522
612,10.240,493
613,10.257,591
614,10.274,803
615,10.290,587
616,10.307,1213
617,10.324,596
618,10.340,497
619,10.357,492
620,10.373,534
621,10.390,585
622,10.407,522
623,10.423,548
624,10.440,832
625,10.457,510
626,10.473,462
627,10.490,718
628,10.506,813
629,10.523,510
630,10.540,510
631,10.556,623
632,10.573,601
633,10.590,510
634,10.606,542
635,10.623,532
636,10.640,611
637,10.656,630
638,10.673,724
639,10.689,572
640,10.706,567
641,10.723,486
642,10.739,494
643,10.756,512
644,10.773,510
645,10.789,445
646,10.806,484
647,10.823,604
648,10.839,598
649,10.856,624
650,10.872,545
651,10.889,550
652,10.906,444
653,10.922,510
654,10.939,1038
655,10.956,731
656,10.972,510
657,10.989,643
658,11.005,538
659,11.022,652
660,11.039,544
661,11.055,510
662,11.072,504
663,11.089,544
664,11.105,505
665,11.122,510
666,11.139,542
667,11.155,501
668,11.172,546
669,11.188,540
670,11.205,773
671,11.222,510
672,11.238,510
673,11.255,670
674,11.272,565
675,11.288,852
676,11.305,574
677,11.322,653
678,11.338,613
679,11.355,605
680,11.371,684
681,11.388,579
682,11.405,624
683,11.421,697
684,11.438,713
685,11.455,685
686,11.471,703
687,11.488,510
688,11.504,545
689,11.521,787
690,11.538,830
691,11.554,588
692,11.571,653
693,11.588,660
694,11.604,566
695,11.621,716
696,11.638,533
697,11.654,751
698,11.671,727
699,11.687,570
700,11.704,701
701,11.721,1239
702,11.737,510
703,11.754,574
704,11.771,474
705,11.787,512
706,11.804,620
707,11.821,530
708,11.837,627
709,11.854,510
710,11.870,505
711,11.887,477
712,11.904,1015
713,11.920,672
714,11.937,887
715,11.954,503
716,11.970,548
717,11.987,653
718,12.003,564
719,12.020,629
720,12.037,712
721,12.053,616
722,12.070,487
723,12.087,545
724,12.103,608
725,12.120,510
726,12.137,563
727,12.153,510
728,12.170,510
729,12.186,510
730,12.203,563
731,12.220,629
732,12.236,759
733,12.253,489
734,12.270,570
735,12.286,623
736,12.303,718
737,12.320,602
738,12.336,526
739,12.353,510
740,12.369,534
741,12.386,548
742,12.403,510
743,12.419,596
744,12.436,656
745,12.453,688
746,12.469,717
747,12.486,510
748,12.502,510
749,12.519,510
750,12.536,533
751,12.552,617
752,12.569,663
753,12.586,551
754,12.602,593
755,12.619,591
756,12.636,446
757,12.652,571
758,12.669,510
759,12.685,750
760,12.702,510
761,12.719,543
762,12.735,569
763,12.752,667
764,12.769,742
765,12.785,595
766,12.802,520
767,12.819,687
768,12.835,695
769,12.852,1011
770,12.868,1083
771,12.885,953
772,12.902,1058
773,12.918,772
774,12.935,725
775,12.952,630
776,12.968,650
777,12.985,626
778,13.001,724
779,13.018,964
780,13.035,613
781,13.051,1119
782,13.068,819
783,13.085,693
784,13.101,854
785,13.118,702
786,13.135,482
787,13.151,636
788,13.168,573
789,13.184,522
790,13.201,510
791,13.218,622
792,13.234,611
793,13.251,596
794,13.268,530
795,13.284,510
796,13.301,681
797,13.318,770
798,13.334,622
799,13.351,613
800,13.367,442
801,13.384,850
802,13.401,731
803,13.417,586
804,13.434,768
805,13.451,643
806,13.467,461
807,13.484,546
808,13.500,591
809,13.517,559
810,13.534,589
811,13.550,487
812,13.567,510
813,13.584,521
814,13.600,510
815,13.617,666
816,13.634,556
817,13.650,736
818,13.667,547
819,13.683,627
820,13.700,592
821,13.717,598
822,13.733,792
823,13.750,535
824,13.767,827
825,13.783,571
826,13.800,536
827,13.817,516
828,13.833,783
829,13.850,510
830,13.866,512
831,13.883,511
832,13.900,613
833,13.916,528
834,13.933,579
835,13.950,611
836,13.966,718
837,13.983,520
838,13.999,465
839,14.016,518
840,14.033,614
841,14.049,510
842,14.066,483
843,14.083,700
844,14.099,520
845,14.116,503
846,14.133,546
847,14.149,685
848,14.166,536
849,14.182,630
850,14.199,893
851,14.216,996
852,14.232,958
853,14.249,975
854,14.266,1021
855,14.282,1172
856,14.299,1078
857,14.316,927
858,14.332,1202
859,14.349,1142
860,14.365,1306
861,14.382,1316
862,14.399,944
863,14.415,1246
864,14.432,846
865,14.449,980
866,14.465,1011
867,14.482,791
868,14.498,836
869,14.515,671
870,14.532,666
871,14.548,782
872,14.565,793
873,14.582,756
874,14.598,990
875,14.615,910
876,14.632,1025
877,14.648,1080
878,14.665,1222
879,14.681,1838
880,14.698,2304
881,14.715,2558
882,14.731,2972
883,14.748,3295
884,14.765,3713
885,14.781,4517
886,14.798,5080
887,14.815,5313
888,14.831,5275
889,14.848,6017
890,14.864,5726
891,14.881,6034
892,14.898,6587
893,14.914,7040
894,14.931,7017
895,14.948,7235
896,14.964,7622
897,14.981,7747
898,14.997,7726
899,15.014,8178
900,15.031,8553
901,15.047,8564
902,15.064,9473
903,15.081,9029
904,15.097,8742
905,15.114,8488
906,15.131,8345
907,15.147,8640
908,15.164,8333
909,15.180,8430
910,15.197,8004
911,15.214,7430
912,15.230,7991
913,15.247,7572
914,15.264,7273
915,15.280,8696
916,15.297,11310
917,15.314,13671
918,15.330,21082
919,15.347,28039
920,15.363,32258
921,15.380,42286
922,15.397,48636
923,15.413,55067
924,15.430,62507
925,15.447,73493
926,15.463,86008
927,15.480,96924
928,15.496,95591
929,15.513,103932
930,15.530,116874
931,15.546,133360
932,15.563,135109
933,15.580,147409
934,15.596,147706
935,15.613,157974
936,15.630,168745
937,15.646,179521
938,15.663,178801
939,15.679,187213
940,15.696,188513
941,15.713,204186
942,15.729,208534
943,15.746,214437
944,15.763,211207
945,15.779,201368
946,15.796,207133
947,15.812,209965
948,15.829,208980
949,15.846,177953
950,15.862,186188
951,15.879,181556
952,15.896,151954
953,15.912,142778
954,15.929,137571
955,15.946,115314
956,15.962,94984
957,15.979,80252
958,15.995,68906
959,16.012,66459
960,16.029,57021
961,16.045,46685
962,16.062,36162
963,16.079,32090
964,16.095,28246
965,16.112,29309
966,16.129,22459
967,16.145,18538
968,16.162,17155
969,16.178,16289
970,16.195,11591
971,16.212,11404
972,16.228,10853
973,16.245,10398
974,16.262,9859
975,16.278,7207
976,16.295,8012
977,16.311,6445
978,16.328,7370
979,16.345,8354
980,16.361,7607
981,16.378,7907
982,16.395,8706
983,16.411,8642
984,16.428,8362
985,16.445,9446
986,16.461,8310
987,16.478,9230
988,16.494,9751
989,16.511,9997
990,16.528,12360
991,16.544,10087
992,16.561,10537
993,16.578,10219
994,16.594,10877
995,16.611,12532
996,16.628,16684
997,16.644,17191
998,16.661,20101
999,16.677,22232
1000,16.694,27068
1001,16.711,31261
1002,16.727,29505
1003,16.744,32970
1004,16.761,33760
1005,16.777,40863
1006,16.794,39759
1007,16.810,38713
1008,16.827,41658
1009,16.844,41781
1010,16.860,40367
1011,16.877,40703
1012,16.894,41256
1013,16.910,44801
1014,16.927,42338
1015,16.944,43242
1016,16.960,40288
1017,16.977,42616
1018,16.993,40825
1019,17.010,40465
1020,17.027,44102
1021,17.043,38671
1022,17.060,40170
1023,17.077,39419
1024,17.093,41708
1025,17.110,40610
1026,17.127,37473
1027,17.143,42012
1028,17.160,34819
1029,17.176,33591
1030,17.193,28801
1031,17.210,26010
1032,17.226,24132
1033,17.243,21771
1034,17.260,20033
1035,17.276,17639
1036,17.293,16746
1037,17.309,15723
1038,17.326,14718
1039,17.343,13496
1040,17.359,11403
1041,17.376,10379
1042,17.393,7352
1043,17.409,7513
1044,17.426,7536
1045,17.443,6433
1046,17.459,4717
1047,17.476,4058
1048,17.492,4948
1049,17.509,3613
1050,17.526,3599
1051,17.542,2804
1052,17.559,2369
1053,17.576,2515
1054,17.592,2189
1055,17.609,2477
1056,17.626,2256
1057,17.642,2009
1058,17.659,1807
1059,17.675,1700
1060,17.692,1578
1061,17.709,1677
1062,17.725,1473
1063,17.742,1244
1064,17.759,1491
1065,17.775,1167
1066,17.792,1264
1067,17.808,1170
1068,17.825,1309
1069,17.842,1305
1070,17.858,1565
1071,17.875,1163
1072,17.892,1019
1073,17.908,1148
1074,17.925,1160
1075,17.942,1139
1076,17.958,1130
1077,17.975,944
1078,17.991,1319
1079,18.008,1212
1080,18.025,1191
1081,18.041,1357
1082,18.058,1495
1083,18.075,1271
1084,18.091,1694
1085,18.108,2061
1086,18.125,2151
1087,18.141,2805
1088,18.158,4284
1089,18.174,5407
1090,18.191,7279
1091,18.208,9688
1092,18.224,10896
1093,18.241,11215
1094,18.258,13479
1095,18.274,16964
1096,18.291,15976
1097,18.307,15621
1098,18.324,17395
1099,18.341,16732
1100,18.357,18935
1101,18.374,17271
1102,18.391,16276
1103,18.407,18120
1104,18.424,18468
1105,18.441,19824
1106,18.457,16655
1107,18.474,21110
1108,18.490,19188
1109,18.507,19390
1110,18.524,21013
1111,18.540,17635
1112,18.557,19412
1113,18.574,21428
1114,18.590,18667
1115,18.607,18864
1116,18.624,19668
1117,18.640,17408
1118,18.657,19212
1119,18.673,17313
1120,18.690,17613
1121,18.707,16023
1122,18.723,17259
1123,18.740,16762
1124,18.757,16012
1125,18.773,15619
1126,18.790,16089
1127,18.806,15327
1128,18.823,13069
1129,18.840,12627
1130,18.856,13713
1131,18.873,12199
1132,18.890,10535
1133,18.906,9542
1134,18.923,11134
1135,18.940,8378
1136,18.956,8884
1137,18.973,7938
1138,18.989,7823
1139,19.006,6554
1140,19.023,6692
1141,19.039,6399
1142,19.056,6476
1143,19.073,5155
1144,19.089,5938
1145,19.106,5349
1146,19.123,4371
1147,19.139,4791
1148,19.156,4992
1149,19.172,4565
1150,19.189,4625
1151,19.206,4494
1152,19.222,5299
1153,19.239,6506
1154,19.256,5002
1155,19.272,3741
1156,19.289,5015
1157,19.305,3964
1158,19.322,5410
1159,19.339,4521
1160,19.355,3754
1161,19.372,4558
1162,19.389,4446
1163,19.405,6282
1164,19.422,4061
1165,19.439,5789
1166,19.455,6472
1167,19.472,4435
1168,19.488,6864
1169,19.505,6737
1170,19.522,5491
1171,19.538,6193
1172,19.555,6143
1173,19.572,5840
1174,19.588,4600
1175,19.605,4683
1176,19.622,2995
1177,19.638,2893
1178,19.655,3022
1179,19.671,2885
1180,19.688,2775
1181,19.705,2117
1182,19.721,2191
1183,19.738,1720
1184,19.755,1999
1185,19.771,2328
1186,19.788,2148
1187,19.804,2149
1188,19.821,1606
1189,19.838,1505
1190,19.854,1606
1191,19.871,1504
1192,19.888,1266
1193,19.904,1640
1194,19.921,1621
1195,19.938,1813
1196,19.954,1159
1197,19.971,1147
1198,19.987,1268
1199,20.004,1215
1200,20.021,1177
1201,20.037,1321
1202,20.054,1519
1203,20.071,1225
1204,20.087,1213
1205,20.104,1245
1206,20.121,1754
1207,20.137,1252
1208,20.154,1030
1209,20.170,1081
1210,20.187,1263
1211,20.204,1075
1212,20.220,1116
1213,20.237,1028
1214,20.254,1176
1215,20.270,1080
1216,20.287,1063
1217,20.303,1065
1218,20.320,895
1219,20.337,1065
1220,20.353,1133
1221,20.370,1109
1222,20.387,1135
1223,20.403,1002
1224,20.420,896
1225,20.437,966
1226,20.453,1065
1227,20.470,1098
1228,20.486,1223
1229,20.503,1036
1230,20.520,930
1231,20.536,1196
1232,20.553,917
1233,20.570,1128
1234,20.586,1028
1235,20.603,1241
1236,20.620,1157
1237,20.636,993
1238,20.653,979
1239,20.669,1005
1240,20.686,908
1241,20.703,1032
1242,20.719,991
1243,20.736,1048
1244,20.753,859
1245,20.769,983
1246,20.786,1069
1247,20.802,871
1248,20.819,1103
1249,20.836,893
1250,20.852,1125
1251,20.869,1058
1252,20.886,1025
1253,20.902,1021
1254,20.919,924
1255,20.936,877
1256,20.952,866
1257,20.969,931
1258,20.985,1092
1259,21.002,917
1260,21.019,908
1261,21.035,1043
1262,21.052,899
1263,21.069,1304
1264,21.085,1021
1265,21.102,941
1266,21.119,983
1267,21.135,908
1268,21.152,1036
1269,21.168,1111
1270,21.185,1078
1271,21.202,928
1272,21.218,1195
1273,21.235,1028
1274,21.252,903
1275,21.268,994
1276,21.285,782
1277,21.301,802
1278,21.318,1015
1279,21.335,995
1280,21.351,931
1281,21.368,1275
1282,21.385,947
1283,21.401,946
1284,21.418,1020
1285,21.435,1120
1286,21.451,1050
1287,21.468,1057
1288,21.484,1296
1289,21.501,1064
1290,21.518,877
1291,21.534,946
1292,21.551,1040
1293,21.568,1054
1294,21.584,1098
1295,21.601,924
1296,21.618,1025
1297,21.634,1039
1298,21.651,1073
1299,21.667,1070
1300,21.684,1009
1301,21.701,971
1302,21.717,1109
1303,21.734,1212
1304,21.751,1487
1305,21.767,1262
1306,21.784,1126
1307,21.800,1177
1308,21.817,1063
1309,21.834,1103
1310,21.850,1119
1311,21.867,977
1312,21.884,1126
1313,21.900,1292
1314,21.917,1008
