#"+ BPC(1083.03666) Scan stir_50_Ecoli-r011.d "
#Point,X(Minutes),Y(Counts)
0,0.060,0
1,0.077,0
2,0.094,0
3,0.110,0
4,0.127,0
5,0.144,0
6,0.160,0
7,0.177,0
8,0.194,0
9,0.210,0
10,0.227,0
11,0.243,0
12,0.260,0
13,0.277,0
14,0.293,0
15,0.310,0
16,0.327,0
17,0.343,0
18,0.360,0
19,0.377,0
20,0.393,0
21,0.410,0
22,0.426,0
23,0.443,0
24,0.460,0
25,0.476,0
26,0.493,0
27,0.510,0
28,0.526,0
29,0.543,0
30,0.559,0
31,0.576,0
32,0.593,0
33,0.609,0
34,0.626,0
35,0.643,0
36,0.659,0
37,0.676,0
38,0.693,0
39,0.709,0
40,0.726,0
41,0.742,0
42,0.759,0
43,0.776,0
44,0.792,0
45,0.809,0
46,0.826,0
47,0.842,0
48,0.859,0
49,0.876,0
50,0.892,0
51,0.909,0
52,0.925,0
53,0.942,0
54,0.959,0
55,0.975,0
56,0.992,0
57,1.009,0
58,1.025,0.112979213846652
59,1.042,0
60,1.058,0
61,1.075,0
62,1.092,0
63,1.108,0
64,1.125,0
65,1.142,0
66,1.158,0
67,1.175,0
68,1.192,0
69,1.208,0
70,1.225,0
71,1.241,0
72,1.258,0
73,1.275,0
74,1.291,0
75,1.308,0
76,1.325,0
77,1.341,0
78,1.358,0.166879198536523
79,1.375,0
80,1.391,0.123545792603408
81,1.408,0
82,1.424,0
83,1.441,0
84,1.458,0
85,1.474,0
86,1.491,0
87,1.508,0
88,1.524,0
89,1.541,0
90,1.557,0
91,1.574,0
92,1.591,0
93,1.607,0
94,1.624,0
95,1.641,0
96,1.657,0.111339555824894
97,1.674,0
98,1.691,0
99,1.707,0
100,1.724,0
101,1.740,0
102,1.757,0
103,1.774,0
104,1.790,0
105,1.807,0
106,1.824,0
107,1.840,0
108,1.857,0
109,1.874,0
110,1.890,0
111,1.907,0.186131726341778
112,1.923,0
113,1.940,0
114,1.957,0
115,1.973,0.241234155196428
116,1.990,0
117,2.007,0
118,2.023,0
119,2.040,0.130368112090798
120,2.057,0
121,2.073,0
122,2.090,0
123,2.106,0.117134446273996
124,2.123,0.165927838214737
125,2.140,0.168499951222228
126,2.156,0
127,2.173,0
128,2.190,0
129,2.206,0
130,2.223,0
131,2.240,0
132,2.256,0
133,2.273,0
134,2.289,0
135,2.306,0
136,2.323,0
137,2.339,0.157651234814666
138,2.356,0
139,2.373,0
140,2.389,0
141,2.406,0
142,2.422,0
143,2.439,0
144,2.456,0
145,2.472,0
146,2.489,0
147,2.506,0.129028833710773
148,2.522,0
149,2.539,0
150,2.556,0
151,2.572,0.157871048877016
152,2.589,0
153,2.605,0
154,2.622,0
155,2.639,0
156,2.655,0
157,2.672,0
158,2.689,0
159,2.705,0
160,2.722,0
161,2.739,0
162,2.755,0
163,2.772,0
164,2.788,0
165,2.805,0
166,2.822,0
167,2.838,0
168,2.855,0
169,2.872,0.125648010436558
170,2.888,0.130769960396655
171,2.905,0
172,2.921,0
173,2.938,0
174,2.955,0
175,2.971,0
176,2.988,0
177,3.005,0
178,3.021,0
179,3.038,0
180,3.055,0
181,3.071,0
182,3.088,0
183,3.104,0
184,3.121,0.118680125260885
185,3.138,0
186,3.154,0
187,3.171,0
188,3.188,0.147668044955088
189,3.204,0
190,3.221,0
191,3.238,0
192,3.254,0.104138983063465
193,3.271,0
194,3.287,0.106195854315361
195,3.304,0
196,3.321,0
197,3.337,0
198,3.354,0
199,3.371,0
200,3.387,0
201,3.404,0
202,3.420,0
203,3.437,0
204,3.454,0
205,3.470,0.102366131511332
206,3.487,0
207,3.504,0
208,3.520,0
209,3.537,0
210,3.554,0
211,3.570,0.130625366586113
212,3.587,0
213,3.603,0.129099726792641
214,3.620,0
215,3.637,0.106256450121166
216,3.653,0.120349579820044
217,3.670,0
218,3.687,0
219,3.703,0
220,3.720,0
221,3.737,0
222,3.753,0.125571293801561
223,3.770,0.151069323941752
224,3.786,0
225,3.803,0
226,3.820,0
227,3.836,0
228,3.853,0.137323193162901
229,3.870,0
230,3.886,0
231,3.903,0
232,3.919,0
233,3.936,0
234,3.953,0
235,3.969,0
236,3.986,0
237,4.003,0
238,4.019,0.136167784795449
239,4.036,0
240,4.053,0
241,4.069,0
242,4.086,0.124881391731985
243,4.102,0
244,4.119,0
245,4.136,0
246,4.152,0
247,4.169,0
248,4.186,0.135628870874884
249,4.202,0
250,4.219,0
251,4.236,0
252,4.252,0.155560139582328
253,4.269,0
254,4.285,0
255,4.302,0
256,4.319,0
257,4.335,0
258,4.352,0
259,4.369,0
260,4.385,0
261,4.402,0
262,4.418,0
263,4.435,0
264,4.452,0
265,4.468,0
266,4.485,0.121054576847863
267,4.502,0
268,4.518,0
269,4.535,0
270,4.552,0.104881142844895
271,4.568,0
272,4.585,0
273,4.601,0
274,4.618,0.171768838863317
275,4.635,0.174541590631066
276,4.651,0
277,4.668,0
278,4.685,0
279,4.701,0
280,4.718,0
281,4.735,0
282,4.751,0
283,4.768,0
284,4.784,0
285,4.801,0
286,4.818,0
287,4.834,0
288,4.851,0
289,4.868,0.136911857479099
290,4.884,0
291,4.901,0
292,4.917,0
293,4.934,0
294,4.951,0
295,4.967,0
296,4.984,0
297,5.001,0
298,5.017,0
299,5.034,0
300,5.051,0
301,5.067,0
302,5.084,0
303,5.100,0
304,5.117,0
305,5.134,0
306,5.150,0
307,5.167,0
308,5.184,0
309,5.200,0
310,5.217,0
311,5.234,0
312,5.250,0
313,5.267,0
314,5.283,0
315,5.300,0
316,5.317,0
317,5.333,0
318,5.350,0
319,5.367,0
320,5.383,0
321,5.400,0
322,5.416,0
323,5.433,0
324,5.450,0
325,5.466,0
326,5.483,0
327,5.500,0
328,5.516,0
329,5.533,0
330,5.550,0
331,5.566,0
332,5.583,0.133677093545352
333,5.599,0
334,5.616,0
335,5.633,0
336,5.649,0
337,5.666,0
338,5.683,0
339,5.699,0
340,5.716,0
341,5.733,0
342,5.749,0
343,5.766,0
344,5.782,0.132834907489778
345,5.799,0
346,5.816,0
347,5.832,0
348,5.849,0
349,5.866,0
350,5.882,0
351,5.899,0
352,5.915,0
353,5.932,0
354,5.949,0.156214259581749
355,5.965,0.251242166504973
356,5.982,0
357,5.999,0
358,6.015,0
359,6.032,0
360,6.049,0
361,6.065,0
362,6.082,0
363,6.098,0
364,6.115,0
365,6.132,0
366,6.148,0
367,6.165,0
368,6.182,0
369,6.198,0
370,6.215,0
371,6.232,0
372,6.248,0
373,6.265,0
374,6.281,0
375,6.298,0
376,6.315,0
377,6.331,0.14122029949029
378,6.348,0
379,6.365,0
380,6.381,0
381,6.398,0
382,6.414,0
383,6.431,0
384,6.448,0
385,6.464,0.134725903893936
386,6.481,0
387,6.498,0
388,6.514,0
389,6.531,0
390,6.548,0
391,6.564,0
392,6.581,0
393,6.597,0
394,6.614,0
395,6.631,0
396,6.647,0
397,6.664,0
398,6.681,0
399,6.697,0
400,6.714,0
401,6.731,0
402,6.747,0
403,6.764,0
404,6.780,0.125415662236678
405,6.797,0
406,6.814,0.13490213772426
407,6.830,0
408,6.847,0
409,6.864,0
410,6.880,0
411,6.897,0
412,6.913,0
413,6.930,0
414,6.947,0
415,6.963,0
416,6.980,0
417,6.997,0
418,7.013,0
419,7.030,0
420,7.047,0
421,7.063,0
422,7.080,0
423,7.096,0
424,7.113,0
425,7.130,0
426,7.146,0
427,7.163,0
428,7.180,0
429,7.196,0
430,7.213,0
431,7.230,0
432,7.246,0
433,7.263,0
434,7.279,0
435,7.296,0
436,7.313,0
437,7.329,0
438,7.346,0
439,7.363,0
440,7.379,0
441,7.396,0
442,7.412,0
443,7.429,0.117808860006243
444,7.446,0
445,7.462,0
446,7.479,0
447,7.496,0
448,7.512,0
449,7.529,0
450,7.546,0
451,7.562,0
452,7.579,0
453,7.595,0.137047395857358
454,7.612,0.163299387151545
455,7.629,0
456,7.645,0
457,7.662,0
458,7.679,0
459,7.695,0
460,7.712,0
461,7.729,0
462,7.745,0
463,7.762,0
464,7.778,0
465,7.795,0
466,7.812,0
467,7.828,0
468,7.845,0
469,7.862,0
470,7.878,0.129415070266255
471,7.895,0
472,7.911,0
473,7.928,0
474,7.945,0
475,7.961,0
476,7.978,0
477,7.995,0
478,8.011,0
479,8.028,0
480,8.045,0
481,8.061,0
482,8.078,0
483,8.094,0
484,8.111,0
485,8.128,0
486,8.144,0
487,8.161,0
488,8.178,0
489,8.194,0
490,8.211,0
491,8.228,0
492,8.244,0
493,8.261,0
494,8.277,0.1393712018154
495,8.294,0
496,8.311,0
497,8.327,0
498,8.344,0
499,8.361,0
500,8.377,0
501,8.394,0.122023245849412
502,8.410,0
503,8.427,0
504,8.444,0
505,8.460,0
506,8.477,0
507,8.494,0
508,8.510,0
509,8.527,0
510,8.544,0
511,8.560,0
512,8.577,0
513,8.593,0
514,8.610,0
515,8.627,0
516,8.643,0
517,8.660,0
518,8.677,0
519,8.693,0
520,8.710,0
521,8.727,0
522,8.743,0
523,8.760,0
524,8.776,0
525,8.793,0
526,8.810,0
527,8.826,0
528,8.843,0
529,8.860,0
530,8.876,0
531,8.893,0
532,8.909,0
533,8.926,0
534,8.943,0
535,8.959,0
536,8.976,0
537,8.993,0
538,9.009,0
539,9.026,0
540,9.043,0
541,9.059,0
542,9.076,0
543,9.092,0
544,9.109,0
545,9.126,0
546,9.142,0
547,9.159,0
548,9.176,0
549,9.192,0
550,9.209,0
551,9.225,0
552,9.242,0
553,9.259,0
554,9.275,0
555,9.292,0.281199896771404
556,9.309,0
557,9.325,0
558,9.342,0
559,9.359,0
560,9.375,0
561,9.392,0
562,9.408,0
563,9.425,0
564,9.442,0.137517013352344
565,9.458,0
566,9.475,0
567,9.492,0
568,9.508,0
569,9.525,0
570,9.542,0
571,9.558,0
572,9.575,0
573,9.591,0
574,9.608,0
575,9.625,0
576,9.641,0
577,9.658,0
578,9.675,0
579,9.691,0
580,9.708,0
581,9.725,0
582,9.741,0
583,9.758,0
584,9.774,0
585,9.791,0
586,9.808,0
587,9.824,0
588,9.841,0
589,9.858,0
590,9.874,0
591,9.891,0
592,9.907,0
593,9.924,0
594,9.941,0
595,9.957,0
596,9.974,0
597,9.991,0
598,10.007,0
599,10.024,0
600,10.041,0
601,10.057,0
602,10.074,0
603,10.090,0
604,10.107,0
605,10.124,0
606,10.140,0
607,10.157,0
608,10.174,0
609,10.190,0
610,10.207,0
611,10.224,0
612,10.240,0
613,10.257,0
614,10.273,0
615,10.290,0
616,10.307,0
617,10.323,0
618,10.340,0
619,10.357,0
620,10.373,0
621,10.390,0
622,10.406,0
623,10.423,0
624,10.440,0
625,10.456,0
626,10.473,0
627,10.490,0
628,10.506,0
629,10.523,0
630,10.540,0
631,10.556,0
632,10.573,0
633,10.589,0
634,10.606,0
635,10.623,0
636,10.639,0
637,10.656,0
638,10.673,0
639,10.689,0
640,10.706,0
641,10.723,0
642,10.739,0
643,10.756,0
644,10.772,0
645,10.789,0
646,10.806,0
647,10.822,0
648,10.839,0
649,10.856,0
650,10.872,0
651,10.889,0
652,10.905,0
653,10.922,0
654,10.939,0
655,10.955,0
656,10.972,0
657,10.989,0
658,11.005,0
659,11.022,0
660,11.039,0
661,11.055,0
662,11.072,0
663,11.088,0
664,11.105,0
665,11.122,0
666,11.138,0
667,11.155,0.131240395503073
668,11.172,0
669,11.188,0
670,11.205,0
671,11.222,0
672,11.238,0
673,11.255,0
674,11.271,0
675,11.288,0.120814947278243
676,11.305,0
677,11.321,0
678,11.338,0
679,11.355,0
680,11.371,0
681,11.388,0
682,11.404,0
683,11.421,0
684,11.438,0
685,11.454,0
686,11.471,0
687,11.488,0
688,11.504,0
689,11.521,0
690,11.538,0.121096444723869
691,11.554,0
692,11.571,0
693,11.587,0
694,11.604,0
695,11.621,0
696,11.637,0.148338023530978
697,11.654,0
698,11.671,0
699,11.687,0
700,11.704,0.308747293107605
701,11.721,0
702,11.737,0
703,11.754,0
704,11.770,0.10684043294363
705,11.787,0
706,11.804,0
707,11.820,0
708,11.837,0
709,11.854,0.106493133204302
710,11.870,0
711,11.887,0
712,11.903,0
713,11.920,0
714,11.937,0
715,11.953,0
716,11.970,0.139734591530658
717,11.987,0
718,12.003,0
719,12.020,0
720,12.037,0
721,12.053,0
722,12.070,0
723,12.086,0.108073977196112
724,12.103,0.135254173439246
725,12.120,0.171659926849829
726,12.136,0.123317007955244
727,12.153,0
728,12.170,0
729,12.186,0
730,12.203,0
731,12.220,0
732,12.236,0
733,12.253,0
734,12.269,0
735,12.286,0
736,12.303,0
737,12.319,0
738,12.336,0
739,12.353,0
740,12.369,0
741,12.386,0
742,12.402,0.103011388911356
743,12.419,0
744,12.436,0
745,12.452,0
746,12.469,0
747,12.486,0.131998645260434
748,12.502,0
749,12.519,0
750,12.536,0
751,12.552,0
752,12.569,0
753,12.585,0
754,12.602,0
755,12.619,0
756,12.635,0
757,12.652,0
758,12.669,0
759,12.685,0
760,12.702,0
761,12.719,0
762,12.735,0
763,12.752,0
764,12.768,0
765,12.785,0
766,12.802,0
767,12.818,0
768,12.835,0
769,12.852,0
770,12.868,0
771,12.885,0
772,12.901,0
773,12.918,0.118033163218157
774,12.935,0
775,12.951,0
776,12.968,0
777,12.985,0
778,13.001,0
779,13.018,0
780,13.035,0
781,13.051,0
782,13.068,0
783,13.084,0
784,13.101,0
785,13.118,0
786,13.134,0
787,13.151,0
788,13.168,0
789,13.184,0
790,13.201,0
791,13.218,0
792,13.234,0
793,13.251,0
794,13.267,0
795,13.284,0
796,13.301,0
797,13.317,0
798,13.334,0
799,13.351,0
800,13.367,0
801,13.384,0
802,13.400,0
803,13.417,0
804,13.434,0
805,13.450,0
806,13.467,0
807,13.484,0
808,13.500,0
809,13.517,0
810,13.534,0
811,13.550,0
812,13.567,0
813,13.583,0
814,13.600,0
815,13.617,0
816,13.633,0
817,13.650,0
818,13.667,0
819,13.683,0
820,13.700,0
821,13.716,0
822,13.733,0
823,13.750,0
824,13.766,0
825,13.783,0
826,13.800,0
827,13.816,0
828,13.833,0
829,13.850,0
830,13.866,0
831,13.883,0
832,13.899,0
833,13.916,0
834,13.933,0
835,13.949,0
836,13.966,0
837,13.983,0
838,13.999,0
839,14.016,0
840,14.033,0
841,14.049,0
842,14.066,0
843,14.082,0
844,14.099,0
845,14.116,0
846,14.132,0
847,14.149,0
848,14.166,0
849,14.182,0
850,14.199,0
851,14.215,0
852,14.232,0
853,14.249,0
854,14.265,0
855,14.282,0
856,14.299,0
857,14.315,0
858,14.332,0
859,14.349,0
860,14.365,0
861,14.382,0
862,14.398,0
863,14.415,0
864,14.432,0
865,14.448,0
866,14.465,0
867,14.482,0
868,14.498,0.139898437776445
869,14.515,0
870,14.532,0
871,14.548,0
872,14.565,0
873,14.581,0
874,14.598,0
875,14.615,0.110809519930358
876,14.631,0
877,14.648,0
878,14.665,0
879,14.681,0
880,14.698,0
881,14.714,0
882,14.731,0
883,14.748,0
884,14.764,0
885,14.781,0.19259543836946
886,14.798,0
887,14.814,0
888,14.831,0.124446021357388
889,14.848,0
890,14.864,0
891,14.881,0
892,14.897,0.131018961644489
893,14.914,0
894,14.931,0
895,14.947,0
896,14.964,0
897,14.981,0
898,14.997,0
899,15.014,0
900,15.031,0
901,15.047,0
902,15.064,0
903,15.080,0
904,15.097,0
905,15.114,0.105712653671951
906,15.130,0
907,15.147,0
908,15.164,0
909,15.180,0.109015194508143
910,15.197,0
911,15.213,0
912,15.230,0
913,15.247,0
914,15.263,0
915,15.280,0
916,15.297,0
917,15.313,0
918,15.330,0
919,15.347,0
920,15.363,0
921,15.380,0
922,15.396,0
923,15.413,0
924,15.430,0
925,15.446,0
926,15.463,0
927,15.480,0
928,15.496,0
929,15.513,0.109136478679537
930,15.530,0
931,15.546,0
932,15.563,0
933,15.579,0
934,15.596,0
935,15.613,0
936,15.629,0
937,15.646,0
938,15.663,0
939,15.679,0
940,15.696,0
941,15.712,0
942,15.729,0
943,15.746,0
944,15.762,0
945,15.779,0
946,15.796,0
947,15.812,0
948,15.829,0
949,15.846,0
950,15.862,0
951,15.879,0
952,15.895,0
953,15.912,0
954,15.929,0
955,15.945,0
956,15.962,0
957,15.979,0
958,15.995,0
959,16.012,0
960,16.029,0
961,16.045,0
962,16.062,0
963,16.078,0
964,16.095,0
965,16.112,0
966,16.128,0
967,16.145,0
968,16.162,0
969,16.178,0
970,16.195,0.147543690884163
971,16.211,0
972,16.228,0
973,16.245,0
974,16.261,0
975,16.278,0
976,16.295,0
977,16.311,0
978,16.328,0
979,16.345,0
980,16.361,0
981,16.378,0
982,16.394,0
983,16.411,0
984,16.428,0
985,16.444,0
986,16.461,0
987,16.478,0
988,16.494,0
989,16.511,0
990,16.528,0.109291639732181
991,16.544,0
992,16.561,0
993,16.577,0
994,16.594,0
995,16.611,0
996,16.627,0
997,16.644,0
998,16.661,0
999,16.677,0
1000,16.694,0
1001,16.710,0
1002,16.727,0
1003,16.744,0
1004,16.760,0
1005,16.777,0
1006,16.794,0
1007,16.810,0
1008,16.827,0
1009,16.844,0
1010,16.860,0
1011,16.877,0
1012,16.893,0
1013,16.910,0
1014,16.927,0
1015,16.943,0.102240558736573
1016,16.960,0.188617218817295
1017,16.977,0
1018,16.993,0
1019,17.010,0
1020,17.027,0
1021,17.043,0
1022,17.060,0
1023,17.076,0
1024,17.093,0
1025,17.110,0
1026,17.126,0
1027,17.143,0
1028,17.160,0
1029,17.176,0
1030,17.193,0
1031,17.209,0
1032,17.226,0
1033,17.243,0
1034,17.259,0
1035,17.276,0
1036,17.293,0
1037,17.309,0
1038,17.326,0.128902458751213
1039,17.343,0.132540829626729
1040,17.359,0
1041,17.376,0
1042,17.392,0
1043,17.409,0
1044,17.426,0
1045,17.442,0
1046,17.459,0
1047,17.476,0
1048,17.492,0.1384038595041
1049,17.509,0
1050,17.526,0
1051,17.542,0
1052,17.559,0
1053,17.575,0
1054,17.592,0
1055,17.609,0
1056,17.625,0
1057,17.642,0
1058,17.659,0.101237334082019
1059,17.675,0
1060,17.692,0
1061,17.708,0
1062,17.725,0
1063,17.742,0
1064,17.758,0
1065,17.775,0
1066,17.792,0
1067,17.808,0
1068,17.825,0
1069,17.842,0.141779854242873
1070,17.858,0
1071,17.875,0
1072,17.891,0
1073,17.908,0
1074,17.925,0
1075,17.941,0
1076,17.958,0
1077,17.975,0
1078,17.991,0
1079,18.008,0
1080,18.025,0.16499864596142
1081,18.041,0
1082,18.058,0
1083,18.074,0
1084,18.091,0
1085,18.108,0
1086,18.124,0
1087,18.141,0
1088,18.158,0
1089,18.174,0
1090,18.191,0
1091,18.207,0
1092,18.224,0
1093,18.241,0
1094,18.257,0
1095,18.274,0
1096,18.291,0
1097,18.307,0.205109197319769
1098,18.324,0.118090149192353
1099,18.341,0
1100,18.357,0
1101,18.374,0
1102,18.390,0.229158589694154
1103,18.407,0
1104,18.424,0
1105,18.440,0
1106,18.457,0.126013891552691
1107,18.474,0.146140391986295
1108,18.490,0
1109,18.507,0
1110,18.524,0
1111,18.540,0
1112,18.557,0
1113,18.573,0
1114,18.590,0
1115,18.607,0
1116,18.623,0
1117,18.640,0
1118,18.657,0
1119,18.673,0
1120,18.690,0
1121,18.706,0
1122,18.723,0
1123,18.740,0
1124,18.756,0
1125,18.773,0
1126,18.790,0
1127,18.806,0
1128,18.823,0
1129,18.840,0
1130,18.856,0
1131,18.873,0
1132,18.889,0
1133,18.906,0
1134,18.923,0
1135,18.939,0
1136,18.956,0
1137,18.973,0
1138,18.989,0
1139,19.006,0
1140,19.023,0
1141,19.039,0.188075728649385
1142,19.056,0
1143,19.072,0
1144,19.089,0.120163388099535
1145,19.106,0
1146,19.122,0
1147,19.139,0
1148,19.156,0
1149,19.172,0
1150,19.189,0
1151,19.205,0
1152,19.222,0
1153,19.239,0
1154,19.255,0
1155,19.272,0
1156,19.289,0
1157,19.305,0.15716858181665
1158,19.322,0.361296506577501
1159,19.339,0.134483458964195
1160,19.355,0
1161,19.372,0
1162,19.388,0
1163,19.405,0
1164,19.422,0
1165,19.438,0
1166,19.455,0
1167,19.472,0.256175464196947
1168,19.488,0
1169,19.505,0
1170,19.522,0
1171,19.538,0.144373009174783
1172,19.555,0
1173,19.571,0.115965161652135
1174,19.588,0.182952498278931
1175,19.605,0
1176,19.621,0
1177,19.638,0
1178,19.655,0.107397318889084
1179,19.671,0.162534334249999
1180,19.688,0
1181,19.704,0.21340207581534
1182,19.721,0
1183,19.738,0
1184,19.754,0
1185,19.771,0
1186,19.788,0
1187,19.804,0
1188,19.821,0
1189,19.838,0
1190,19.854,0
1191,19.871,0
1192,19.887,0
1193,19.904,0
1194,19.921,0
1195,19.937,0.123263253860202
1196,19.954,0
1197,19.971,0
1198,19.987,0
1199,20.004,0
1200,20.021,0.119121249768773
1201,20.037,0
1202,20.054,0
1203,20.070,0
1204,20.087,0.11936914029919
1205,20.104,0
1206,20.120,0
1207,20.137,0.201040084058897
1208,20.154,0
1209,20.170,0
1210,20.187,0
1211,20.203,0
1212,20.220,0
1213,20.237,0.167829278447951
1214,20.253,0.27683203137835
1215,20.270,0
1216,20.287,0
1217,20.303,0
1218,20.320,0
1219,20.337,0.164903756755334
1220,20.353,0
1221,20.370,0.106681530933016
1222,20.386,0.320455550530396
1223,20.403,0
1224,20.420,0
1225,20.436,0
1226,20.453,0
1227,20.470,0.145206587170367
1228,20.486,0
1229,20.503,0
1230,20.520,0
1231,20.536,0.112475572917424
1232,20.553,0
1233,20.569,0
1234,20.586,0.136203682565334
1235,20.603,0
1236,20.619,0
1237,20.636,0
1238,20.653,0
1239,20.669,0
1240,20.686,0.158178532482235
1241,20.702,0
1242,20.719,0
1243,20.736,0
1244,20.752,0.282806919755692
1245,20.769,0
1246,20.786,0
1247,20.802,0.139013843912787
1248,20.819,0
1249,20.836,0
1250,20.852,0.134969984046544
1251,20.869,0
1252,20.885,0.134012931297991
1253,20.902,0
1254,20.919,0
1255,20.935,0
1256,20.952,0.214914410139742
1257,20.969,0.2101935063007
1258,20.985,0
1259,21.002,0.278249615336344
1260,21.018,0.14112129137378
1261,21.035,0.18378157169832
1262,21.052,0.195758884988993
1263,21.068,0
1264,21.085,0
1265,21.102,0.174060819682007
1266,21.118,0.265375474863784
1267,21.135,0.159672231436624
1268,21.152,0
1269,21.168,0
1270,21.185,0.273843430192368
1271,21.201,0
1272,21.218,0
1273,21.235,0.151713138951796
1274,21.251,0.144703277913701
1275,21.268,0
1276,21.285,0.18420817974662
1277,21.301,0
1278,21.318,0.263190878822132
1279,21.335,0
1280,21.351,0.141485853512979
1281,21.368,0
1282,21.384,0.155836847059089
1283,21.401,0.270886145066922
1284,21.418,0.184588446195979
1285,21.434,0.379405735920487
1286,21.451,0
1287,21.468,0.414729079780591
1288,21.484,0
1289,21.501,0.390105986433174
1290,21.517,0.176414630436967
1291,21.534,0.269415863738096
1292,21.551,0.33267665086769
1293,21.567,0.409864816261472
1294,21.584,0.117648924411365
1295,21.601,0.216814739655538
1296,21.617,0.304635478932662
1297,21.634,0
1298,21.651,0.327537669907184
1299,21.667,0.492600490652755
1300,21.684,0.291815732760323
1301,21.700,0.205183044601435
1302,21.717,0
1303,21.734,0.185189683704999
1304,21.750,0.152842954538741
1305,21.767,0.112647656984061
1306,21.784,0.240635679054322
1307,21.800,0
1308,21.817,0.303189911066387
1309,21.834,0.28088158367136
1310,21.850,0.19072050108797
1311,21.867,0.22444742005915
1312,21.883,0.286288617768746
1313,21.900,0.475730081469987
1314,21.917,0.337717641869319
1315,21.933,0.193833641464446
1316,21.950,0.327484232058073
1317,21.967,0.451746082583588
1318,21.983,0.374621320642418
1319,22.000,0
1320,22.016,0.200357579058792
1321,22.033,0
1322,22.050,0.357895705816392
1323,22.066,0.3015346644342
1324,22.083,0.326377988362999
1325,22.100,0.439291392202633
1326,22.116,0
1327,22.133,0.2234394902822
1328,22.150,0.532904692507608
1329,22.166,0.357679331892711
1330,22.183,0.255237509617332
1331,22.199,0.383453652990632
1332,22.216,0
1333,22.233,0.450407081882917
1334,22.249,0
1335,22.266,0.476686501726677
1336,22.283,0.375240761575788
1337,22.299,0
1338,22.316,0.332267968564387
1339,22.333,0.559238938597251
