#"+ BPC(1331.49046) Scan unstir_50_Ecoli-r004.d "
#Point,X(Minutes),Y(Counts)
0,0.068,1.19946979741168
1,0.085,0.943626846335883
2,0.102,0
3,0.118,1.00963868408651
4,0.135,0
5,0.152,0
6,0.168,0
7,0.185,0
8,0.201,0
9,0.218,0
10,0.235,0
11,0.251,0
12,0.268,0
13,0.285,0
14,0.301,0
15,0.318,0
16,0.335,0
17,0.351,0
18,0.368,0
19,0.384,0
20,0.401,0
21,0.418,0
22,0.434,0
23,0.451,0
24,0.468,0
25,0.484,1.37502681491308
26,0.501,0
27,0.517,0
28,0.534,0
29,0.551,0
30,0.567,0
31,0.584,0
32,0.601,0
33,0.617,0
34,0.634,0
35,0.651,1.29611677710355
36,0.667,0
37,0.684,0
38,0.701,0
39,0.717,0
40,0.734,0
41,0.750,0
42,0.767,0
43,0.784,0
44,0.800,0
45,0.817,0
46,0.834,0
47,0.850,0
48,0.867,0
49,0.883,0
50,0.900,0
51,0.917,0
52,0.933,1.20084023160556
53,0.950,0
54,0.967,0
55,0.983,1.10526582042901
56,1.000,0
57,1.017,0.979444178890727
58,1.033,0
59,1.050,0
60,1.066,0
61,1.083,0
62,1.100,0
63,1.116,0
64,1.133,1.2741733052482
65,1.150,0
66,1.166,0
67,1.183,0
68,1.200,0
69,1.216,0
70,1.233,0
71,1.249,0
72,1.266,0.947127503270445
73,1.283,0
74,1.299,1.1923400666045
75,1.316,0
76,1.333,0
77,1.349,0
78,1.366,0
79,1.382,0
80,1.399,0
81,1.416,0
82,1.432,0
83,1.449,0
84,1.466,0
85,1.482,0
86,1.499,0
87,1.516,0
88,1.532,0
89,1.549,0
90,1.565,1.93239609750532
91,1.582,0
92,1.599,1.13075343172631
93,1.615,0
94,1.632,0
95,1.649,0
96,1.665,0
97,1.682,0
98,1.698,0
99,1.715,0
100,1.732,0
101,1.748,0
102,1.765,0
103,1.782,0
104,1.798,0
105,1.815,0
106,1.832,0
107,1.848,0
108,1.865,0
109,1.881,0
110,1.898,0
111,1.915,0
112,1.931,0
113,1.948,0
114,1.965,0
115,1.981,0
116,1.998,0
117,2.015,0
118,2.031,0
119,2.048,0
120,2.064,0
121,2.081,0
122,2.098,0
123,2.114,0
124,2.131,0
125,2.148,0
126,2.164,0
127,2.181,0
128,2.197,0
129,2.214,0
130,2.231,0
131,2.247,0
132,2.264,0
133,2.281,0
134,2.297,0
135,2.314,0
136,2.331,0
137,2.347,0
138,2.364,0
139,2.380,0
140,2.397,0
141,2.414,0
142,2.430,0
143,2.447,0
144,2.464,0
145,2.480,0
146,2.497,0
147,2.514,0
148,2.530,0
149,2.547,0
150,2.563,0
151,2.580,0
152,2.597,1.21254773917177
153,2.613,0
154,2.630,0
155,2.647,0
156,2.663,0
157,2.680,0
158,2.696,0
159,2.713,0
160,2.730,0
161,2.746,0
162,2.763,0
163,2.780,0
164,2.796,0
165,2.813,0
166,2.830,0
167,2.846,0
168,2.863,0
169,2.879,0
170,2.896,0
171,2.913,0
172,2.929,0
173,2.946,0
174,2.963,0
175,2.979,0
176,2.996,0
177,3.013,0
178,3.029,0
179,3.046,0
180,3.062,0
181,3.079,0
182,3.096,0
183,3.112,0
184,3.129,0
185,3.146,0
186,3.162,0
187,3.179,0
188,3.195,0
189,3.212,0
190,3.229,0
191,3.245,0
192,3.262,0
193,3.279,0
194,3.295,0
195,3.312,0
196,3.329,0
197,3.345,0
198,3.362,0
199,3.378,0
200,3.395,0
201,3.412,0
202,3.428,0
203,3.445,0
204,3.462,0
205,3.478,0
206,3.495,0
207,3.512,0
208,3.528,0
209,3.545,0
210,3.561,0
211,3.578,0
212,3.595,0
213,3.611,0
214,3.628,0
215,3.645,0
216,3.661,0
217,3.678,0
218,3.694,0
219,3.711,0
220,3.728,0
221,3.744,0
222,3.761,0
223,3.778,1.48356097385222
224,3.794,0
225,3.811,0
226,3.828,0
227,3.844,0
228,3.861,0
229,3.877,0
230,3.894,0
231,3.911,0
232,3.927,0
233,3.944,0
234,3.961,0
235,3.977,0
236,3.994,0
237,4.011,0
238,4.027,0
239,4.044,0
240,4.060,0
241,4.077,0
242,4.094,0
243,4.110,0
244,4.127,0
245,4.144,0
246,4.160,0
247,4.177,0
248,4.193,0
249,4.210,0
250,4.227,1.35886308555211
251,4.243,0
252,4.260,0
253,4.277,0
254,4.293,0
255,4.310,0
256,4.327,0
257,4.343,0
258,4.360,0
259,4.376,0
260,4.393,0
261,4.410,0
262,4.426,0
263,4.443,0
264,4.460,0
265,4.476,0
266,4.493,1.20661689321375
267,4.510,0
268,4.526,0
269,4.543,0
270,4.559,0
271,4.576,0
272,4.593,0
273,4.609,0
274,4.626,0
275,4.643,0
276,4.659,0
277,4.676,0
278,4.692,0
279,4.709,0
280,4.726,0
281,4.742,0
282,4.759,0
283,4.776,0
284,4.792,1.97650528514263
285,4.809,0
286,4.826,0
287,4.842,0
288,4.859,0
289,4.875,0
290,4.892,0
291,4.909,0
292,4.925,0
293,4.942,1.17229932205267
294,4.959,0
295,4.975,0
296,4.992,0
297,5.009,0
298,5.025,0
299,5.042,0
300,5.058,0
301,5.075,0
302,5.092,0
303,5.108,0
304,5.125,0
305,5.142,0
306,5.158,0
307,5.175,0
308,5.191,0
309,5.208,0
310,5.225,1.06074295380042
311,5.241,0
312,5.258,0
313,5.275,0
314,5.291,0
315,5.308,0
316,5.325,0
317,5.341,0
318,5.358,1.14007178207151
319,5.374,0
320,5.391,0
321,5.408,0
322,5.424,0
323,5.441,0
324,5.458,0
325,5.474,0
326,5.491,0
327,5.508,0
328,5.524,0
329,5.541,0
330,5.557,0
331,5.574,0
332,5.591,0
333,5.607,0
334,5.624,0
335,5.641,0
336,5.657,0
337,5.674,0
338,5.690,0
339,5.707,0
340,5.724,0
341,5.740,0
342,5.757,0
343,5.774,0
344,5.790,0
345,5.807,0
346,5.824,0
347,5.840,0
348,5.857,0
349,5.873,0
350,5.890,1.17868725948922
351,5.907,0
352,5.923,0
353,5.940,0
354,5.957,0
355,5.973,0
356,5.990,0
357,6.007,0
358,6.023,0
359,6.040,0
360,6.056,0
361,6.073,0
362,6.090,0
363,6.106,0
364,6.123,0
365,6.140,0
366,6.156,0
367,6.173,0
368,6.189,0
369,6.206,0
370,6.223,0
371,6.239,0
372,6.256,1.17474302496329
373,6.273,1.28940380617385
374,6.289,0
375,6.306,0
376,6.323,0
377,6.339,0
378,6.356,0
379,6.372,0
380,6.389,0
381,6.406,0
382,6.422,0
383,6.439,0
384,6.456,0
385,6.472,0
386,6.489,0
387,6.506,0
388,6.522,0
389,6.539,0
390,6.555,0
391,6.572,0
392,6.589,0
393,6.605,0
394,6.622,0
395,6.639,0
396,6.655,0
397,6.672,0
398,6.688,0
399,6.705,0
400,6.722,0
401,6.738,0
402,6.755,0
403,6.772,0
404,6.788,0
405,6.805,0
406,6.822,0
407,6.838,0
408,6.855,0
409,6.871,1.03788950019646
410,6.888,0
411,6.905,0
412,6.921,0
413,6.938,0
414,6.955,0
415,6.971,0
416,6.988,0
417,7.005,0
418,7.021,0
419,7.038,0
420,7.054,0
421,7.071,0
422,7.088,0
423,7.104,0
424,7.121,0
425,7.138,0
426,7.154,0
427,7.171,0
428,7.187,0
429,7.204,0
430,7.221,0
431,7.237,0
432,7.254,0
433,7.271,0
434,7.287,1.09794486461757
435,7.304,0
436,7.321,0
437,7.337,0
438,7.354,0
439,7.370,0
440,7.387,0
441,7.404,0
442,7.420,0
443,7.437,0
444,7.454,0
445,7.470,0
446,7.487,0
447,7.504,0
448,7.520,0
449,7.537,0
450,7.553,0
451,7.570,0
452,7.587,0
453,7.603,0
454,7.620,1.20231429560769
455,7.637,0
456,7.653,1.19797220664227
457,7.670,0
458,7.686,0
459,7.703,0
460,7.720,0
461,7.736,0
462,7.753,0
463,7.770,0
464,7.786,0
465,7.803,0
466,7.820,0
467,7.836,0
468,7.853,0
469,7.869,0
470,7.886,1.43298388577768
471,7.903,0
472,7.919,0
473,7.936,0
474,7.953,0
475,7.969,0
476,7.986,0
477,8.003,0
478,8.019,0
479,8.036,0
480,8.052,0
481,8.069,0
482,8.086,0
483,8.102,0
484,8.119,0
485,8.136,0
486,8.152,1.18743403542584
487,8.169,0
488,8.185,0
489,8.202,0
490,8.219,0
491,8.235,0
492,8.252,0
493,8.269,0
494,8.285,0
495,8.302,0
496,8.319,0
497,8.335,0
498,8.352,0
499,8.368,0
500,8.385,0
501,8.402,0
502,8.418,0
503,8.435,0
504,8.452,0
505,8.468,0
506,8.485,0
507,8.501,0
508,8.518,0
509,8.535,0
510,8.551,0
511,8.568,0
512,8.585,0
513,8.601,0
514,8.618,0
515,8.635,0
516,8.651,0
517,8.668,0
518,8.684,0
519,8.701,0
520,8.718,0
521,8.734,0
522,8.751,0
523,8.768,0
524,8.784,0
525,8.801,0
526,8.818,0
527,8.834,0
528,8.851,0
529,8.867,0
530,8.884,0
531,8.901,0
532,8.917,0
533,8.934,0
534,8.951,0
535,8.967,0
536,8.984,0
537,9.000,1.55791116005874
538,9.017,0
539,9.034,0
540,9.050,0
541,9.067,0
542,9.084,1.62255529440097
543,9.100,0
544,9.117,0
545,9.134,0
546,9.150,0
547,9.167,1.2992291723579
548,9.183,0
549,9.200,0
550,9.217,0
551,9.233,0
552,9.250,0
553,9.267,0
554,9.283,0
555,9.300,0
556,9.317,0
557,9.333,0
558,9.350,0
559,9.366,0
560,9.383,0
561,9.400,0
562,9.416,1.32510945660427
563,9.433,0
564,9.450,0
565,9.466,0
566,9.483,0
567,9.499,0
568,9.516,0
569,9.533,0
570,9.549,0
571,9.566,0
572,9.583,1.17875825991189
573,9.599,0
574,9.616,0
575,9.633,0
576,9.649,0
577,9.666,0
578,9.682,0
579,9.699,0
580,9.716,0
581,9.732,0
582,9.749,0
583,9.766,0
584,9.782,0
585,9.799,0
586,9.816,0
587,9.832,1.07447138266766
588,9.849,0
589,9.865,0
590,9.882,0
591,9.899,0
592,9.915,0
593,9.932,0
594,9.949,0
595,9.965,0
596,9.982,0
597,9.998,0
598,10.015,0
599,10.032,0
600,10.048,0
601,10.065,0
602,10.082,0
603,10.098,0
604,10.115,0
605,10.132,0
606,10.148,0
607,10.165,0
608,10.181,0
609,10.198,0
610,10.215,0
611,10.231,0
612,10.248,0
613,10.265,0
614,10.281,0
615,10.298,0
616,10.315,0
617,10.331,0
618,10.348,0
619,10.364,0
620,10.381,0
621,10.398,0
622,10.414,0
623,10.431,0
624,10.448,0
625,10.464,0
626,10.481,0
627,10.497,0
628,10.514,0
629,10.531,0
630,10.547,0
631,10.564,1.378743624022
632,10.581,0
633,10.597,0
634,10.614,1.40879024668062
635,10.631,0
636,10.647,0
637,10.664,0
638,10.680,0
639,10.697,0
640,10.714,0
641,10.730,0
642,10.747,0
643,10.764,0
644,10.780,0
645,10.797,0
646,10.814,0
647,10.830,0
648,10.847,0
649,10.863,0
650,10.880,0
651,10.897,0
652,10.913,0
653,10.930,0
654,10.947,0
655,10.963,0
656,10.980,0
657,10.996,0
658,11.013,0
659,11.030,0
660,11.046,0
661,11.063,0
662,11.080,0
663,11.096,0
664,11.113,0
665,11.130,0
666,11.146,0
667,11.163,0
668,11.179,0
669,11.196,0
670,11.213,0
671,11.229,0
672,11.246,0
673,11.263,0
674,11.279,0
675,11.296,0
676,11.313,0
677,11.329,0
678,11.346,0
679,11.362,0
680,11.379,0
681,11.396,0
682,11.412,0
683,11.429,0
684,11.446,0
685,11.462,0
686,11.479,0
687,11.495,0
688,11.512,0
689,11.529,0
690,11.545,0
691,11.562,0
692,11.579,0
693,11.595,0
694,11.612,0
695,11.629,0
696,11.645,0
697,11.662,0
698,11.678,0
699,11.695,0
700,11.712,0
701,11.728,0
702,11.745,0
703,11.762,0
704,11.778,0
705,11.795,0
706,11.812,0
707,11.828,0
708,11.845,0
709,11.861,0
710,11.878,0
711,11.895,0
712,11.911,1.36691246088731
713,11.928,0
714,11.945,0
715,11.961,0
716,11.978,0
717,11.994,0.961793011680749
718,12.011,0
719,12.028,1.14019928874773
720,12.044,0
721,12.061,0
722,12.078,0
723,12.094,0
724,12.111,0
725,12.128,0
726,12.144,0
727,12.161,0
728,12.177,0
729,12.194,0
730,12.211,0
731,12.227,0
732,12.244,0
733,12.261,0
734,12.277,0
735,12.294,0
736,12.311,0
737,12.327,0
738,12.344,0
739,12.360,0
740,12.377,0
741,12.394,0
742,12.410,0
743,12.427,0
744,12.444,0
745,12.460,0
746,12.477,0
747,12.493,0
748,12.510,1.09064988627833
749,12.527,0
750,12.543,0
751,12.560,0
752,12.577,0
753,12.593,0
754,12.610,0
755,12.627,0
756,12.643,0
757,12.660,0
758,12.676,0
759,12.693,0
760,12.710,0
761,12.726,0
762,12.743,0
763,12.760,0
764,12.776,0
765,12.793,0
766,12.810,0
767,12.826,0
768,12.843,0
769,12.859,0
770,12.876,0
771,12.893,0
772,12.909,0
773,12.926,1.25929976699986
774,12.943,0
775,12.959,0
776,12.976,0
777,12.992,0
778,13.009,0
779,13.026,0
780,13.042,0
781,13.059,0
782,13.076,0
783,13.092,0
784,13.109,0
785,13.126,0
786,13.142,0
787,13.159,0
788,13.175,0
789,13.192,0
790,13.209,0
791,13.225,0
792,13.242,0
793,13.259,0
794,13.275,0
795,13.292,0
796,13.309,0
797,13.325,0
798,13.342,0
799,13.358,0
800,13.375,0
801,13.392,0
802,13.408,0
803,13.425,1.06360369666908
804,13.442,0
805,13.458,0
806,13.475,0
807,13.491,0
808,13.508,0
809,13.525,0
810,13.541,0
811,13.558,0
812,13.575,0
813,13.591,0
814,13.608,0
815,13.625,0
816,13.641,0
817,13.658,0
818,13.674,0
819,13.691,0
820,13.708,0
821,13.724,0.974010475931714
822,13.741,0
823,13.758,0
824,13.774,0
825,13.791,0
826,13.808,0
827,13.824,0
828,13.841,0
829,13.857,0
830,13.874,0
831,13.891,0
832,13.907,0
833,13.924,0
834,13.941,0
835,13.957,0
836,13.974,0
837,13.990,0
838,14.007,0
839,14.024,0
840,14.040,0
841,14.057,0
842,14.074,0
843,14.090,0
844,14.107,0
845,14.124,0
846,14.140,0
847,14.157,0
848,14.173,1.17144738700071
849,14.190,0
850,14.207,0
851,14.223,0
852,14.240,0
853,14.257,0
854,14.273,0
855,14.290,0
856,14.307,0
857,14.323,0
858,14.340,0
859,14.356,0
860,14.373,0
861,14.390,0
862,14.406,0
863,14.423,0
864,14.440,0
865,14.456,0
866,14.473,0
867,14.489,0
868,14.506,0
869,14.523,0
870,14.539,0
871,14.556,0
872,14.573,0
873,14.589,0
874,14.606,0
875,14.623,0
876,14.639,0
877,14.656,1.61470281570143
878,14.672,0
879,14.689,0
880,14.706,0
881,14.722,1.23089553676163
882,14.739,0
883,14.756,0
884,14.772,0
885,14.789,0
886,14.806,0
887,14.822,0
888,14.839,0.998970345428512
889,14.855,0
890,14.872,0
891,14.889,0
892,14.905,0
893,14.922,0
894,14.939,0
895,14.955,0
896,14.972,0
897,14.988,0
898,15.005,0
899,15.022,0
900,15.038,0
901,15.055,0
902,15.072,0
903,15.088,0
904,15.105,0
905,15.122,0
906,15.138,0
907,15.155,0
908,15.171,0
909,15.188,0
910,15.205,0
911,15.221,0
912,15.238,0
913,15.255,0
914,15.271,0
915,15.288,0
916,15.304,1.07141003209589
917,15.321,1.25867406702252
918,15.338,0
919,15.354,0
920,15.371,0
921,15.388,0
922,15.404,0
923,15.421,0
924,15.438,0
925,15.454,0
926,15.471,0
927,15.487,0
928,15.504,0
929,15.521,0
930,15.537,0
931,15.554,0
932,15.571,0
933,15.587,0
934,15.604,0
935,15.621,0
936,15.637,0
937,15.654,0
938,15.670,0
939,15.687,0
940,15.704,0
941,15.720,0
942,15.737,0
943,15.754,0
944,15.770,0
945,15.787,0
946,15.803,0
947,15.820,1.69931991509929
948,15.837,0
949,15.853,0
950,15.870,0
951,15.887,0
952,15.903,0
953,15.920,1.30251185659445
954,15.937,0
955,15.953,0
956,15.970,0
957,15.986,1.00604546052594
958,16.003,0
959,16.020,0
960,16.036,0
961,16.053,0
962,16.070,0
963,16.086,0.946306237040112
964,16.103,0
965,16.120,1.49318818303807
966,16.136,0
967,16.153,0
968,16.169,0
969,16.186,0
970,16.203,1.52403597614664
971,16.219,0
972,16.236,0
973,16.253,0
974,16.269,0
975,16.286,0
976,16.302,0
977,16.319,0
978,16.336,0
979,16.352,0
980,16.369,0
981,16.386,0
982,16.402,0
983,16.419,0
984,16.436,0
985,16.452,0
986,16.469,1.27643285518876
987,16.485,0
988,16.502,0
989,16.519,0
990,16.535,0
991,16.552,0
992,16.569,0
993,16.585,0
994,16.602,0
995,16.619,0
996,16.635,0
997,16.652,0
998,16.668,0
999,16.685,0
1000,16.702,0
1001,16.718,0
1002,16.735,0
1003,16.752,0
1004,16.768,0
1005,16.785,0
1006,16.801,0
1007,16.818,0
1008,16.835,0
1009,16.851,0
1010,16.868,0
1011,16.885,0
1012,16.901,0
1013,16.918,0
1014,16.935,0
1015,16.951,0
1016,16.968,0
1017,16.984,0
1018,17.001,0
1019,17.018,0
1020,17.034,0
1021,17.051,0
1022,17.068,0
1023,17.084,0
1024,17.101,0
1025,17.118,0
1026,17.134,0
1027,17.151,0
1028,17.167,0
1029,17.184,0
1030,17.201,0
1031,17.217,0
1032,17.234,0
1033,17.251,0
1034,17.267,0
1035,17.284,0
1036,17.300,0
1037,17.317,0
1038,17.334,0
1039,17.350,0
1040,17.367,0
1041,17.384,0
1042,17.400,0
1043,17.417,0
1044,17.434,0
1045,17.450,0
1046,17.467,0
1047,17.483,0
1048,17.500,0
1049,17.517,0
1050,17.533,0
1051,17.550,0
1052,17.567,0
1053,17.583,0
1054,17.600,0
1055,17.617,0
1056,17.633,0
1057,17.650,0
1058,17.666,0
1059,17.683,0
1060,17.700,0
1061,17.716,0
1062,17.733,0
1063,17.750,0
1064,17.766,0
1065,17.783,0
1066,17.799,0
1067,17.816,1.13209088643392
1068,17.833,0
1069,17.849,0
1070,17.866,0
1071,17.883,0
1072,17.899,0
1073,17.916,0
1074,17.933,0
1075,17.949,0
1076,17.966,0
1077,17.982,0
1078,17.999,0
1079,18.016,0
1080,18.032,0
1081,18.049,0
1082,18.066,0
1083,18.082,0
1084,18.099,0
1085,18.116,0
1086,18.132,0
1087,18.149,0
1088,18.165,0
1089,18.182,0
1090,18.199,0
1091,18.215,0
1092,18.232,0
1093,18.249,1.09102218336646
1094,18.265,0
1095,18.282,0
1096,18.298,0
1097,18.315,0
1098,18.332,0
1099,18.348,0
1100,18.365,0
1101,18.382,0
1102,18.398,0
1103,18.415,0
1104,18.432,0
1105,18.448,0
1106,18.465,0
1107,18.481,0
1108,18.498,0
1109,18.515,0
1110,18.531,0
1111,18.548,0
1112,18.565,0
1113,18.581,0
1114,18.598,0
1115,18.615,0
1116,18.631,0
1117,18.648,0
1118,18.664,0
1119,18.681,0
1120,18.698,0
1121,18.714,0
1122,18.731,0
1123,18.748,0
1124,18.764,0
1125,18.781,0
1126,18.797,0
1127,18.814,0
1128,18.831,0
1129,18.847,0
1130,18.864,0
1131,18.881,0
1132,18.897,0
1133,18.914,0
1134,18.931,1.85853227119614
1135,18.947,0
1136,18.964,0
1137,18.980,0
1138,18.997,0
1139,19.014,0
1140,19.030,0
1141,19.047,0
1142,19.064,0
1143,19.080,0
1144,19.097,0
1145,19.114,1.10500030405546
1146,19.130,0
1147,19.147,0
1148,19.163,0
1149,19.180,0
1150,19.197,0
1151,19.213,0
1152,19.230,0
1153,19.247,0
1154,19.263,0
1155,19.280,0
1156,19.296,0
1157,19.313,0
1158,19.330,0
1159,19.346,0
1160,19.363,0
1161,19.380,1.14515545434714
1162,19.396,0
1163,19.413,0
1164,19.430,0
1165,19.446,0
1166,19.463,0
1167,19.479,0
1168,19.496,0
1169,19.513,1.86600706125671
1170,19.529,2.27796089631695
1171,19.546,1.74819551375469
1172,19.563,0
1173,19.579,1.40716101804669
1174,19.596,0
1175,19.613,0
1176,19.629,0
1177,19.646,0
1178,19.662,0
1179,19.679,0
1180,19.696,0
1181,19.712,1.52056003632174
1182,19.729,3.16815733384456
1183,19.746,0
1184,19.762,2.58295868636928
1185,19.779,0
1186,19.795,1.77589534137743
1187,19.812,3.4220691294397
1188,19.829,0
1189,19.845,2.72293931062001
1190,19.862,2.9168348830527
1191,19.879,2.07010694887495
1192,19.895,2.30807795923712
1193,19.912,1.00672577621303
1194,19.929,0
1195,19.945,0
1196,19.962,1.332932666885
1197,19.978,0
1198,19.995,1.8548352077669
1199,20.012,0
1200,20.028,1.45239654966738
1201,20.045,1.43545027521388
1202,20.062,0
1203,20.078,0
1204,20.095,0
1205,20.112,1.22136887649783
1206,20.128,1.0595121397671
1207,20.145,0
1208,20.161,0
1209,20.178,0
1210,20.195,0
1211,20.211,0
1212,20.228,1.17090893211869
1213,20.245,0
1214,20.261,0
1215,20.278,1.29774936670424
1216,20.294,0
1217,20.311,0
1218,20.328,0
1219,20.344,0
1220,20.361,0
1221,20.378,1.48375408940028
1222,20.394,2.07776785246951
1223,20.411,0
1224,20.428,1.08165509900333
1225,20.444,0
1226,20.461,0.96455894727889
1227,20.477,1.28821850523199
1228,20.494,3.14539630682633
1229,20.511,0
1230,20.527,0
1231,20.544,1.11969900201246
1232,20.561,0
1233,20.577,0
1234,20.594,0
1235,20.611,0
1236,20.627,2.80350560483778
1237,20.644,0.968251249338562
1238,20.660,0
1239,20.677,2.03478710941981
1240,20.694,2.71184615976835
1241,20.710,0
1242,20.727,0
1243,20.744,1.56979161737249
1244,20.760,1.09543072144541
1245,20.777,1.06174284140969
1246,20.793,0
1247,20.810,0
1248,20.827,0
1249,20.843,0
1250,20.860,0
1251,20.877,0
1252,20.893,0
1253,20.910,0
1254,20.927,1.47590749239256
1255,20.943,0
1256,20.960,2.54418769421907
1257,20.976,0
1258,20.993,0
1259,21.010,1.79869978088289
1260,21.026,0
1261,21.043,0
1262,21.060,0
1263,21.076,0
1264,21.093,0
1265,21.110,0
1266,21.126,0
1267,21.143,0
1268,21.159,0
1269,21.176,1.07594796739486
1270,21.193,0
1271,21.209,1.44738184723035
1272,21.226,0
1273,21.243,2.70115016315477
1274,21.259,0
1275,21.276,2.28562250011293
1276,21.292,0
1277,21.309,2.70762478552551
1278,21.326,2.65708172723935
1279,21.342,0
1280,21.359,1.18897027731292
1281,21.376,2.39258008556394
1282,21.392,3.01034818136745
1283,21.409,0
1284,21.426,0
1285,21.442,0
1286,21.459,1.97549559471366
1287,21.475,0
1288,21.492,0
1289,21.509,3.49745561372866
1290,21.525,1.34527959837612
1291,21.542,1.35374909455556
1292,21.559,0
1293,21.575,0
1294,21.592,2.33797333839181
1295,21.609,1.58014185453126
1296,21.625,0
1297,21.642,0
1298,21.658,2.41386648841892
1299,21.675,2.16715136288546
1300,21.692,0
1301,21.708,1.3631722650514
1302,21.725,1.31626409230953
1303,21.742,0
1304,21.758,2.8005765223118
1305,21.775,0
1306,21.791,0
1307,21.808,1.75498550683916
1308,21.825,0
1309,21.841,2.17483439284449
1310,21.858,0
1311,21.875,0
1312,21.891,2.07403339828514
1313,21.908,2.48730221158782
1314,21.925,0
1315,21.941,0
1316,21.958,0
1317,21.974,0
1318,21.991,2.3243034463622
1319,22.008,0
1320,22.024,0
1321,22.041,0
1322,22.058,0
1323,22.074,2.30923763280748
1324,22.091,1.28070352361066
1325,22.108,0
1326,22.124,0
1327,22.141,0
1328,22.157,0
1329,22.174,0
1330,22.191,1.34114000765763
1331,22.207,0
1332,22.224,2.78168004689938
1333,22.241,2.53689579676602
1334,22.257,0
1335,22.274,0
1336,22.290,1.59267167862992
1337,22.307,1.26353472515
1338,22.324,1.52884229864493
1339,22.340,2.29299296016385
1340,22.357,1.99605322794417
1341,22.374,0
1342,22.390,0
1343,22.407,0
1344,22.424,0
1345,22.440,0
1346,22.457,0
1347,22.473,0
1348,22.490,0
1349,22.507,1.95243474145293
1350,22.523,0
1351,22.540,0
1352,22.557,0
1353,22.573,1.50390672613696
1354,22.590,2.69859078697171
1355,22.607,0
1356,22.623,3.43076899188206
1357,22.640,0
1358,22.656,2.31839668733258
1359,22.673,0
1360,22.690,0
1361,22.706,0
1362,22.723,0
1363,22.740,0
1364,22.756,0
1365,22.773,0
1366,22.789,0
1367,22.806,2.41944457290806
1368,22.823,0
1369,22.839,0
1370,22.856,0
1371,22.873,0
1372,22.889,4.21898599588223
1373,22.906,0
1374,22.923,0
1375,22.939,0
1376,22.956,2.12372529174088
1377,22.972,1.38315279228222
1378,22.989,1.69063153596001
1379,23.006,0
1380,23.022,0
1381,23.039,2.51394011375663
1382,23.056,0
1383,23.072,0
1384,23.089,0
1385,23.106,3.00573749514228
