#"+ BPC(1331.49046) Scan unstir_50_Ecoli-r009.d "
#Point,X(Minutes),Y(Counts)
0,0.064,0
1,0.080,0
2,0.097,0
3,0.114,0
4,0.130,0
5,0.147,0
6,0.163,0
7,0.180,0
8,0.197,0
9,0.213,0
10,0.230,0
11,0.247,0
12,0.263,0
13,0.280,0
14,0.297,0
15,0.313,0
16,0.330,0
17,0.346,0
18,0.363,0
19,0.380,1.65674052879673
20,0.396,0
21,0.413,0
22,0.430,1.65406762292662
23,0.446,0
24,0.463,0
25,0.480,0
26,0.496,0
27,0.513,0
28,0.529,0
29,0.546,0
30,0.563,0
31,0.579,0
32,0.596,0
33,0.613,0
34,0.629,0
35,0.646,0
36,0.662,0
37,0.679,0
38,0.696,0
39,0.712,0
40,0.729,0
41,0.746,0
42,0.762,0
43,0.779,0
44,0.796,0
45,0.812,0
46,0.829,0
47,0.845,0
48,0.862,0
49,0.879,0
50,0.895,0
51,0.912,0
52,0.929,0
53,0.945,1.63447276324279
54,0.962,0
55,0.979,0
56,0.995,0
57,1.012,0
58,1.028,0
59,1.045,0
60,1.062,0
61,1.078,0
62,1.095,2.28114811678371
63,1.112,0
64,1.128,0
65,1.145,0
66,1.161,0
67,1.178,0
68,1.195,0
69,1.211,0
70,1.228,0
71,1.245,0
72,1.261,0
73,1.278,0
74,1.295,0
75,1.311,0
76,1.328,0
77,1.344,0
78,1.361,0
79,1.378,0
80,1.394,0
81,1.411,0
82,1.428,0
83,1.444,0
84,1.461,0
85,1.478,0
86,1.494,0
87,1.511,0
88,1.527,0
89,1.544,0
90,1.561,0
91,1.577,0
92,1.594,0
93,1.611,0
94,1.627,0
95,1.644,0
96,1.660,0
97,1.677,0
98,1.694,0
99,1.710,0
100,1.727,1.99504565057512
101,1.744,0
102,1.760,0
103,1.777,1.67478827888465
104,1.794,0
105,1.810,0
106,1.827,0
107,1.843,0
108,1.860,0
109,1.877,0
110,1.893,0
111,1.910,0
112,1.927,0
113,1.943,0
114,1.960,0
115,1.977,0
116,1.993,0
117,2.010,0
118,2.026,0
119,2.043,0
120,2.060,0
121,2.076,0
122,2.093,0
123,2.110,0
124,2.126,0
125,2.143,0
126,2.159,0
127,2.176,0
128,2.193,0
129,2.209,0
130,2.226,0
131,2.243,0
132,2.259,0
133,2.276,0
134,2.293,0
135,2.309,0
136,2.326,0
137,2.342,0
138,2.359,0
139,2.376,0
140,2.392,0
141,2.409,0
142,2.426,0
143,2.442,1.56534137135316
144,2.459,0
145,2.476,0
146,2.492,0
147,2.509,0
148,2.525,0
149,2.542,0
150,2.559,0
151,2.575,0
152,2.592,0
153,2.609,0
154,2.625,0
155,2.642,0
156,2.658,0
157,2.675,0
158,2.692,0
159,2.708,0
160,2.725,0
161,2.742,0
162,2.758,0
163,2.775,2.03284575412882
164,2.792,0
165,2.808,0
166,2.825,1.39901796333182
167,2.841,0
168,2.858,0
169,2.875,0
170,2.891,0
171,2.908,0
172,2.925,0
173,2.941,0
174,2.958,0
175,2.975,0
176,2.991,0
177,3.008,0
178,3.024,0
179,3.041,0
180,3.058,0
181,3.074,0
182,3.091,0
183,3.108,0
184,3.124,0
185,3.141,0
186,3.157,1.57462971426467
187,3.174,0
188,3.191,0
189,3.207,0
190,3.224,0
191,3.241,0
192,3.257,0
193,3.274,0
194,3.291,0
195,3.307,0
196,3.324,0
197,3.340,0
198,3.357,0
199,3.374,0
200,3.390,0
201,3.407,0
202,3.424,0
203,3.440,0
204,3.457,0
205,3.474,0
206,3.490,0
207,3.507,0
208,3.523,0
209,3.540,0
210,3.557,0
211,3.573,1.4707979238637
212,3.590,0
213,3.607,0
214,3.623,0
215,3.640,0
216,3.656,0
217,3.673,0
218,3.690,1.47690138143531
219,3.706,0
220,3.723,0
221,3.740,0
222,3.756,0
223,3.773,0
224,3.790,0
225,3.806,0
226,3.823,0
227,3.839,1.84662905615411
228,3.856,0
229,3.873,0
230,3.889,0
231,3.906,0
232,3.923,0
233,3.939,0
234,3.956,0
235,3.973,0
236,3.989,0
237,4.006,0
238,4.022,0
239,4.039,0
240,4.056,0
241,4.072,0
242,4.089,0
243,4.106,0
244,4.122,0
245,4.139,0
246,4.155,0
247,4.172,0
248,4.189,0
249,4.205,0
250,4.222,0
251,4.239,0
252,4.255,0
253,4.272,1.523252729073
254,4.289,0
255,4.305,0
256,4.322,0
257,4.338,0
258,4.355,0
259,4.372,0
260,4.388,0
261,4.405,0
262,4.422,0
263,4.438,0
264,4.455,0
265,4.472,0
266,4.488,0
267,4.505,0
268,4.521,0
269,4.538,0
270,4.555,0
271,4.571,0
272,4.588,1.39368282406447
273,4.605,1.95133559035987
274,4.621,0
275,4.638,0
276,4.654,0
277,4.671,0
278,4.688,0
279,4.704,0
280,4.721,0
281,4.738,0
282,4.754,0
283,4.771,0
284,4.788,0
285,4.804,0
286,4.821,0
287,4.837,0
288,4.854,0
289,4.871,0
290,4.887,0
291,4.904,0
292,4.921,0
293,4.937,0
294,4.954,0
295,4.971,0
296,4.987,0
297,5.004,0
298,5.020,0
299,5.037,0
300,5.054,0
301,5.070,0
302,5.087,0
303,5.104,0
304,5.120,0
305,5.137,0
306,5.153,0
307,5.170,0
308,5.187,0
309,5.203,0
310,5.220,0
311,5.237,0
312,5.253,0
313,5.270,0
314,5.287,0
315,5.303,0
316,5.320,0
317,5.336,0
318,5.353,0
319,5.370,0
320,5.386,1.93051728626217
321,5.403,0
322,5.420,0
323,5.436,0
324,5.453,0
325,5.469,0
326,5.486,0
327,5.503,0
328,5.519,0
329,5.536,0
330,5.553,0
331,5.569,0
332,5.586,0
333,5.603,0
334,5.619,0
335,5.636,0
336,5.652,0
337,5.669,0
338,5.686,0
339,5.702,0
340,5.719,0
341,5.736,0
342,5.752,0
343,5.769,0
344,5.786,0
345,5.802,0
346,5.819,0
347,5.835,0
348,5.852,0
349,5.869,0
350,5.885,0
351,5.902,0
352,5.919,0
353,5.935,0
354,5.952,0
355,5.968,0
356,5.985,0
357,6.002,0
358,6.018,0
359,6.035,0
360,6.052,0
361,6.068,0
362,6.085,0
363,6.102,0
364,6.118,0
365,6.135,0
366,6.151,0
367,6.168,0
368,6.185,0
369,6.201,0
370,6.218,0
371,6.235,0
372,6.251,0
373,6.268,0
374,6.285,0
375,6.301,0
376,6.318,0
377,6.334,0
378,6.351,0
379,6.368,1.86361703965982
380,6.384,0
381,6.401,1.96034974048695
382,6.418,0
383,6.434,0
384,6.451,0
385,6.467,0
386,6.484,3.67326767292885
387,6.501,0
388,6.517,0
389,6.534,0
390,6.551,0
391,6.567,0
392,6.584,0
393,6.601,0
394,6.617,0
395,6.634,0
396,6.650,0
397,6.667,0
398,6.684,0
399,6.700,0
400,6.717,0
401,6.734,0
402,6.750,0
403,6.767,0
404,6.784,0
405,6.800,0
406,6.817,0
407,6.833,0
408,6.850,0
409,6.867,0
410,6.883,0
411,6.900,0
412,6.917,0
413,6.933,0
414,6.950,0
415,6.966,0
416,6.983,0
417,7.000,0
418,7.016,1.54797007650858
419,7.033,0
420,7.050,0
421,7.066,1.57084567430272
422,7.083,0
423,7.100,0
424,7.116,0
425,7.133,0
426,7.149,0
427,7.166,0
428,7.183,0
429,7.199,0
430,7.216,0
431,7.233,0
432,7.249,0
433,7.266,0
434,7.283,0
435,7.299,0
436,7.316,0
437,7.332,0
438,7.349,0
439,7.366,0
440,7.382,0
441,7.399,0
442,7.416,0
443,7.432,0
444,7.449,0
445,7.465,0
446,7.482,0
447,7.499,0
448,7.515,0
449,7.532,1.66690261808567
450,7.549,0
451,7.565,0
452,7.582,0
453,7.599,0
454,7.615,0
455,7.632,0
456,7.648,0
457,7.665,0
458,7.682,0
459,7.698,0
460,7.715,0
461,7.732,0
462,7.748,0
463,7.765,0
464,7.782,0
465,7.798,0
466,7.815,0
467,7.831,0
468,7.848,0
469,7.865,0
470,7.881,0
471,7.898,0
472,7.915,1.68822023432553
473,7.931,0
474,7.948,0
475,7.964,0
476,7.981,0
477,7.998,0
478,8.014,0
479,8.031,0
480,8.048,0
481,8.064,0
482,8.081,0
483,8.098,0
484,8.114,0
485,8.131,0
486,8.147,0
487,8.164,2.28848479355743
488,8.181,0
489,8.197,0
490,8.214,0
491,8.231,0
492,8.247,0
493,8.264,0
494,8.281,0
495,8.297,0
496,8.314,0
497,8.330,0
498,8.347,0
499,8.364,0
500,8.380,0
501,8.397,0
502,8.414,0
503,8.430,0
504,8.447,0
505,8.463,0
506,8.480,0
507,8.497,0
508,8.513,2.18746814216975
509,8.530,0
510,8.547,0
511,8.563,0
512,8.580,0
513,8.597,0
514,8.613,0
515,8.630,0
516,8.646,0
517,8.663,0
518,8.680,0
519,8.696,0
520,8.713,0
521,8.730,0
522,8.746,0
523,8.763,0
524,8.780,0
525,8.796,0
526,8.813,0
527,8.829,0
528,8.846,0
529,8.863,0
530,8.879,0
531,8.896,0
532,8.913,0
533,8.929,0
534,8.946,0
535,8.962,0
536,8.979,0
537,8.996,0
538,9.012,0
539,9.029,0
540,9.046,0
541,9.062,0
542,9.079,0
543,9.096,0
544,9.112,0
545,9.129,1.4736960488343
546,9.145,0
547,9.162,0
548,9.179,0
549,9.195,0
550,9.212,1.32185438856234
551,9.229,0
552,9.245,0
553,9.262,0
554,9.279,0
555,9.295,0
556,9.312,0
557,9.328,0
558,9.345,0
559,9.362,0
560,9.378,0
561,9.395,0
562,9.412,0
563,9.428,0
564,9.445,0
565,9.461,2.345118919196
566,9.478,0
567,9.495,0
568,9.511,0
569,9.528,0
570,9.545,0
571,9.561,0
572,9.578,0
573,9.595,0
574,9.611,0
575,9.628,0
576,9.644,0
577,9.661,0
578,9.678,0
579,9.694,0
580,9.711,0
581,9.728,0
582,9.744,0
583,9.761,0
584,9.778,0
585,9.794,0
586,9.811,0
587,9.827,0
588,9.844,0
589,9.861,2.24234440180881
590,9.877,0
591,9.894,0
592,9.911,0
593,9.927,0
594,9.944,0
595,9.960,1.76594635813254
596,9.977,0
597,9.994,0
598,10.010,0
599,10.027,0
600,10.044,0
601,10.060,0
602,10.077,0
603,10.094,0
604,10.110,0
605,10.127,0
606,10.143,0
607,10.160,0
608,10.177,0
609,10.193,0
610,10.210,0
611,10.227,0
612,10.243,0
613,10.260,0
614,10.277,0
615,10.293,0
616,10.310,0
617,10.326,0
618,10.343,0
619,10.360,0
620,10.376,0
621,10.393,0
622,10.410,0
623,10.426,0
624,10.443,0
625,10.459,0
626,10.476,0
627,10.493,0
628,10.509,0
629,10.526,0
630,10.543,0
631,10.559,0
632,10.576,0
633,10.593,0
634,10.609,0
635,10.626,0
636,10.642,1.38079127477346
637,10.659,0
638,10.676,0
639,10.692,0
640,10.709,0
641,10.726,0
642,10.742,0
643,10.759,0
644,10.776,0
645,10.792,0
646,10.809,0
647,10.825,1.40874856553985
648,10.842,0
649,10.859,0
650,10.875,0
651,10.892,0
652,10.909,0
653,10.925,0
654,10.942,0
655,10.958,0
656,10.975,0
657,10.992,0
658,11.008,0
659,11.025,0
660,11.042,0
661,11.058,0
662,11.075,0
663,11.092,0
664,11.108,0
665,11.125,0
666,11.141,0
667,11.158,0
668,11.175,0
669,11.191,0
670,11.208,0
671,11.225,0
672,11.241,0
673,11.258,0
674,11.275,0
675,11.291,0
676,11.308,0
677,11.324,0
678,11.341,0
679,11.358,0
680,11.374,0
681,11.391,0
682,11.408,0
683,11.424,0
684,11.441,0
685,11.457,0
686,11.474,0
687,11.491,0
688,11.507,0
689,11.524,1.69628403565307
690,11.541,0
691,11.557,0
692,11.574,0
693,11.591,0
694,11.607,0
695,11.624,1.45325736559419
696,11.640,0
697,11.657,0
698,11.674,0
699,11.690,0
700,11.707,1.61069479290567
701,11.724,0
702,11.740,0
703,11.757,0
704,11.774,0
705,11.790,0
706,11.807,0
707,11.823,0
708,11.840,0
709,11.857,0
710,11.873,0
711,11.890,0
712,11.907,0
713,11.923,0
714,11.940,0
715,11.956,0
716,11.973,0
717,11.990,0
718,12.006,0
719,12.023,0
720,12.040,0
721,12.056,0
722,12.073,0
723,12.090,0
724,12.106,0
725,12.123,0
726,12.139,0
727,12.156,0
728,12.173,1.68528420711482
729,12.189,0
730,12.206,0
731,12.223,0
732,12.239,0
733,12.256,0
734,12.273,0
735,12.289,0
736,12.306,0
737,12.322,0
738,12.339,0
739,12.356,0
740,12.372,0
741,12.389,0
742,12.406,1.71997971823203
743,12.422,0
744,12.439,0
745,12.455,0
746,12.472,0
747,12.489,0
748,12.505,0
749,12.522,0
750,12.539,1.44464288461486
751,12.555,0
752,12.572,0
753,12.589,0
754,12.605,0
755,12.622,0
756,12.638,0
757,12.655,0
758,12.672,0
759,12.688,1.45199970942148
760,12.705,0
761,12.722,0
762,12.738,0
763,12.755,0
764,12.772,0
765,12.788,0
766,12.805,0
767,12.821,0
768,12.838,0
769,12.855,1.84749941127847
770,12.871,2.98158949355649
771,12.888,0
772,12.905,0
773,12.921,0
774,12.938,0
775,12.955,0
776,12.971,0
777,12.988,0
778,13.004,0
779,13.021,1.65381397714605
780,13.038,0
781,13.054,0
782,13.071,0
783,13.088,0
784,13.104,0
785,13.121,0
786,13.137,0
787,13.154,0
788,13.171,0
789,13.187,0
790,13.204,0
791,13.221,0
792,13.237,1.42808918098669
793,13.254,0
794,13.271,0
795,13.287,0
796,13.304,0
797,13.320,0
798,13.337,0
799,13.354,0
800,13.370,0
801,13.387,0
802,13.404,0
803,13.420,1.4579265226056
804,13.437,0
805,13.454,0
806,13.470,0
807,13.487,0
808,13.503,0
809,13.520,0
810,13.537,0
811,13.553,0
812,13.570,0
813,13.587,0
814,13.603,0
815,13.620,0
816,13.636,0
817,13.653,0
818,13.670,0
819,13.686,0
820,13.703,0
821,13.720,0
822,13.736,0
823,13.753,0
824,13.770,0
825,13.786,0
826,13.803,0
827,13.819,0
828,13.836,0
829,13.853,0
830,13.869,0
831,13.886,0
832,13.903,0
833,13.919,0
834,13.936,0
835,13.953,0
836,13.969,0
837,13.986,0
838,14.002,0
839,14.019,0
840,14.036,0
841,14.052,0
842,14.069,0
843,14.086,0
844,14.102,0
845,14.119,0
846,14.135,0
847,14.152,0
848,14.169,0
849,14.185,0
850,14.202,0
851,14.219,0
852,14.235,0
853,14.252,0
854,14.269,0
855,14.285,0
856,14.302,0
857,14.318,0
858,14.335,0
859,14.352,0
860,14.368,0
861,14.385,0
862,14.402,1.52959716509756
863,14.418,0
864,14.435,0
865,14.452,0
866,14.468,0
867,14.485,0
868,14.501,0
869,14.518,0
870,14.535,0
871,14.551,0
872,14.568,0
873,14.585,0
874,14.601,0
875,14.618,0
876,14.634,0
877,14.651,0
878,14.668,0
879,14.684,0
880,14.701,0
881,14.718,0
882,14.734,1.31696809161216
883,14.751,0
884,14.768,0
885,14.784,0
886,14.801,0
887,14.817,0
888,14.834,0
889,14.851,0
890,14.867,0
891,14.884,0
892,14.901,0
893,14.917,0
894,14.934,0
895,14.951,0
896,14.967,0
897,14.984,0
898,15.000,0
899,15.017,0
900,15.034,0
901,15.050,0
902,15.067,0
903,15.084,0
904,15.100,0
905,15.117,0
906,15.133,0
907,15.150,0
908,15.167,0
909,15.183,1.56449704908319
910,15.200,0
911,15.217,2.57806349364114
912,15.233,0
913,15.250,0
914,15.267,0
915,15.283,0
916,15.300,0
917,15.316,0
918,15.333,0
919,15.350,0
920,15.366,0
921,15.383,0
922,15.400,0
923,15.416,0
924,15.433,0
925,15.450,0
926,15.466,1.74583483107027
927,15.483,0
928,15.499,0
929,15.516,0
930,15.533,0
931,15.549,0
932,15.566,0
933,15.583,0
934,15.599,0
935,15.616,0
936,15.632,0
937,15.649,0
938,15.666,0
939,15.682,0
940,15.699,0
941,15.716,0
942,15.732,0
943,15.749,0
944,15.766,0
945,15.782,0
946,15.799,0
947,15.815,0
948,15.832,0
949,15.849,0
950,15.865,0
951,15.882,0
952,15.899,0
953,15.915,0
954,15.932,0
955,15.949,0
956,15.965,0
957,15.982,0
958,15.998,0
959,16.015,0
960,16.032,0
961,16.048,0
962,16.065,0
963,16.082,0
964,16.098,0
965,16.115,0
966,16.131,0
967,16.148,0
968,16.165,0
969,16.181,0
970,16.198,0
971,16.215,0
972,16.231,0
973,16.248,0
974,16.265,0
975,16.281,0
976,16.298,0
977,16.314,0
978,16.331,0
979,16.348,0
980,16.364,0
981,16.381,0
982,16.398,0
983,16.414,0
984,16.431,0
985,16.448,0
986,16.464,0
987,16.481,0
988,16.497,0
989,16.514,0
990,16.531,0
991,16.547,0
992,16.564,0
993,16.581,0
994,16.597,0
995,16.614,0
996,16.630,0
997,16.647,0
998,16.664,0
999,16.680,0
1000,16.697,0
1001,16.714,0
1002,16.730,0
1003,16.747,0
1004,16.764,0
1005,16.780,0
1006,16.797,0
1007,16.813,0
1008,16.830,0
1009,16.847,0
1010,16.863,0
1011,16.880,0
1012,16.897,0
1013,16.913,0
1014,16.930,0
1015,16.947,0
1016,16.963,0
1017,16.980,0
1018,16.996,0
1019,17.013,0
1020,17.030,0
1021,17.046,0
1022,17.063,0
1023,17.080,0
1024,17.096,0
1025,17.113,0
1026,17.129,0
1027,17.146,0
1028,17.163,0
1029,17.179,0
1030,17.196,0
1031,17.213,0
1032,17.229,0
1033,17.246,0
1034,17.263,0
1035,17.279,0
1036,17.296,0
1037,17.312,0
1038,17.329,0
1039,17.346,0
1040,17.362,0
1041,17.379,0
1042,17.396,0
1043,17.412,0
1044,17.429,0
1045,17.446,0
1046,17.462,0
1047,17.479,0
1048,17.495,0
1049,17.512,0
1050,17.529,1.47256007880091
1051,17.545,0
1052,17.562,0
1053,17.579,0
1054,17.595,0
1055,17.612,0
1056,17.628,0
1057,17.645,0
1058,17.662,0
1059,17.678,0
1060,17.695,0
1061,17.712,1.57179562413132
1062,17.728,0
1063,17.745,0
1064,17.762,0
1065,17.778,0
1066,17.795,0
1067,17.811,0
1068,17.828,0
1069,17.845,0
1070,17.861,0
1071,17.878,0
1072,17.895,0
1073,17.911,0
1074,17.928,0
1075,17.945,0
1076,17.961,0
1077,17.978,1.51159030953188
1078,17.994,0
1079,18.011,0
1080,18.028,0
1081,18.044,0
1082,18.061,0
1083,18.078,0
1084,18.094,0
1085,18.111,0
1086,18.127,0
1087,18.144,0
1088,18.161,0
1089,18.177,0
1090,18.194,0
1091,18.211,0
1092,18.227,0
1093,18.244,0
1094,18.261,0
1095,18.277,0
1096,18.294,0
1097,18.310,0
1098,18.327,0
1099,18.344,0
1100,18.360,0
1101,18.377,0
1102,18.394,0
1103,18.410,0
1104,18.427,2.09500682431828
1105,18.444,0
1106,18.460,2.10475168973772
1107,18.477,0
1108,18.493,0
1109,18.510,0
1110,18.527,0
1111,18.543,0
1112,18.560,0
1113,18.577,0
1114,18.593,0
1115,18.610,0
1116,18.626,0
1117,18.643,0
1118,18.660,0
1119,18.676,0
1120,18.693,0
1121,18.710,0
1122,18.726,0
1123,18.743,0
1124,18.760,0
1125,18.776,0
1126,18.793,0
1127,18.809,0
1128,18.826,0
1129,18.843,0
1130,18.859,0
1131,18.876,0
1132,18.893,0
1133,18.909,0
1134,18.926,0
1135,18.943,0
1136,18.959,0
1137,18.976,1.75601158254157
1138,18.992,0
1139,19.009,0
1140,19.026,0
1141,19.042,0
1142,19.059,0
1143,19.076,0
1144,19.092,0
1145,19.109,0
1146,19.125,0
1147,19.142,0
1148,19.159,0
1149,19.175,0
1150,19.192,0
1151,19.209,0
1152,19.225,0
1153,19.242,1.703126187936
1154,19.259,0
1155,19.275,1.43573625715842
1156,19.292,0
1157,19.308,0
1158,19.325,0
1159,19.342,0
1160,19.358,0
1161,19.375,0
1162,19.392,0
1163,19.408,0
1164,19.425,0
1165,19.442,0
1166,19.458,0
1167,19.475,0
1168,19.491,1.42214620947915
1169,19.508,0
1170,19.525,0
1171,19.541,0
1172,19.558,0
1173,19.575,0
1174,19.591,0
1175,19.608,0
1176,19.624,0
1177,19.641,2.45230445939085
1178,19.658,0
1179,19.674,2.30020675951263
1180,19.691,1.66793834666822
1181,19.708,0
1182,19.724,0
1183,19.741,1.48659996622472
1184,19.758,2.08895224068787
1185,19.774,0
1186,19.791,0
1187,19.807,0
1188,19.824,0
1189,19.841,0
1190,19.857,0
1191,19.874,0
1192,19.891,0
1193,19.907,0
1194,19.924,0
1195,19.940,1.60878082952252
1196,19.957,0
1197,19.974,0
1198,19.990,0
1199,20.007,0
1200,20.024,0
1201,20.040,1.63515769661879
1202,20.057,1.88195194908799
1203,20.074,0
1204,20.090,0
1205,20.107,0
1206,20.123,0
1207,20.140,0
1208,20.157,2.2221758219009
1209,20.173,0
1210,20.190,2.06352761750317
1211,20.207,0
1212,20.223,0
1213,20.240,0
1214,20.257,0
1215,20.273,0
1216,20.290,0
1217,20.306,0
1218,20.323,0
1219,20.340,3.74575151795679
1220,20.356,0
1221,20.373,0
1222,20.390,0
1223,20.406,1.71262588570753
1224,20.423,0
1225,20.440,0
1226,20.456,0
1227,20.473,0
1228,20.489,0
1229,20.506,0
1230,20.523,0
1231,20.539,0
1232,20.556,0
1233,20.573,2.87568145833904
1234,20.589,1.33905552229734
1235,20.606,0
1236,20.623,0
1237,20.639,0
1238,20.656,0
1239,20.672,0
1240,20.689,0
1241,20.706,0
1242,20.722,0
1243,20.739,2.44477707450371
1244,20.756,0
1245,20.772,0
1246,20.789,0
1247,20.805,1.40174622642106
1248,20.822,0
1249,20.839,0
1250,20.855,0
1251,20.872,0
1252,20.889,0
1253,20.905,0
1254,20.922,0
1255,20.939,1.8036102131073
1256,20.955,0
1257,20.972,3.2927882298591
1258,20.988,0
1259,21.005,0
1260,21.022,0
1261,21.038,1.97266557469914
1262,21.055,0
1263,21.072,0
1264,21.088,0
1265,21.105,0
1266,21.122,2.53436460461245
1267,21.138,0
1268,21.155,0
1269,21.171,1.4707665049015
1270,21.188,0
1271,21.205,0
1272,21.221,0
1273,21.238,1.5809289668293
1274,21.255,1.77228740290404
1275,21.271,1.39383183971377
1276,21.288,0
1277,21.304,0
1278,21.321,2.0266182165922
1279,21.338,0
1280,21.354,3.43408778101359
1281,21.371,1.35515529672874
1282,21.388,0
1283,21.404,1.65654752660035
1284,21.421,0
1285,21.438,0
1286,21.454,0
1287,21.471,0
1288,21.487,0
1289,21.504,0
1290,21.521,3.297752425887
1291,21.537,0
1292,21.554,0
1293,21.571,0
1294,21.587,2.01648335707051
1295,21.604,0
1296,21.621,1.63111701859415
1297,21.637,0
1298,21.654,1.87204968962933
1299,21.670,2.451205094942
1300,21.687,0
1301,21.704,2.91285238470681
1302,21.720,1.88048453393905
1303,21.737,0
1304,21.754,1.44710024642999
1305,21.770,0
1306,21.787,2.06325133012127
1307,21.803,0
1308,21.820,0
1309,21.837,1.39864682060689
1310,21.853,0
1311,21.870,0
1312,21.887,2.10969234647965
1313,21.903,1.45252445596162
1314,21.920,1.49932554360111
1315,21.937,0
1316,21.953,0
1317,21.970,0
1318,21.986,0
1319,22.003,1.92343575141008
1320,22.020,0
1321,22.036,1.77495432420992
1322,22.053,0
1323,22.070,1.79254275899327
1324,22.086,0
1325,22.103,0
1326,22.120,2.37045177906253
1327,22.136,3.47341315050378
1328,22.153,1.55510497372505
1329,22.169,0
1330,22.186,0
1331,22.203,1.96696447932919
1332,22.219,1.42015344933366
1333,22.236,0
1334,22.253,1.61257384633082
1335,22.269,3.03624971042689
1336,22.286,4.19508975601554
1337,22.302,0
1338,22.319,3.96450210244923
1339,22.336,1.78093489872936
1340,22.352,0
1341,22.369,0
1342,22.386,0
1343,22.402,0
1344,22.419,0
1345,22.436,0
1346,22.452,3.95800964820274
1347,22.469,0
1348,22.485,3.64344020584092
1349,22.502,4.00049726143149
1350,22.519,3.73849543331469
1351,22.535,0
1352,22.552,0
1353,22.569,0
1354,22.585,0
1355,22.602,2.79102680503873
1356,22.619,0
1357,22.635,1.89528116950961
1358,22.652,4.05463841709776
1359,22.668,3.35872575956249
1360,22.685,0
1361,22.702,2.94767596549852
1362,22.718,0
1363,22.735,0
1364,22.752,1.7785875531533
1365,22.768,3.68127182809957
1366,22.785,0
1367,22.801,0
1368,22.818,0
1369,22.835,3.74721853413477
1370,22.851,0
1371,22.868,0
1372,22.885,4.74910520391533
1373,22.901,2.785397723925
1374,22.918,2.62171510461242
1375,22.935,0
1376,22.951,0
1377,22.968,0
1378,22.984,0
1379,23.001,0
1380,23.018,0
1381,23.034,0
1382,23.051,0
1383,23.068,2.60922771289233
1384,23.084,0
1385,23.101,1.72289799123553
1386,23.118,2.71888846885227
1387,23.134,1.63419069078213
1388,23.151,0
1389,23.167,2.4673370862775
1390,23.184,2.80025979073112
1391,23.201,0
1392,23.217,2.79930046508522
1393,23.234,2.01388166751472
1394,23.251,4.4236909332288
1395,23.267,0
1396,23.284,0
1397,23.300,0
1398,23.317,0
