#"+ Scan (rt: 15.421 min) nostir_75um_sp-r003.d "
#Point,X(Thompsons),Y(Counts)
0,600.28634,2576.82861328125
1,600.45089,365.580505371094
2,600.79956,1220.37658691406
3,601.06596,384.396728515625
4,601.29484,1143.375
5,601.72711,387.562164306641
6,601.80009,389.017852783203
7,602.30437,862.152404785156
8,602.81776,451.306030273438
9,603.30178,803.896301269531
10,603.75882,392.795928955078
11,604.29629,626.440795898438
12,604.59981,760.053527832031
13,604.90622,445.058868408203
14,605.02659,471.301940917969
15,605.28970,532.409118652344
16,605.53412,611.178588867188
17,605.59657,526.2548828125
18,605.78034,526.015380859375
19,606.30017,1222.14721679688
20,606.41062,851.753601074219
21,606.46448,891.905395507813
22,606.51499,694.385681152344
23,606.61647,444.142456054688
24,606.71999,380.282684326172
25,607.27966,769.388671875
26,607.35813,635.793579101563
27,607.44179,392.080352783203
28,607.99125,560.903686523438
29,608.17071,364.440002441406
30,608.29293,523.809997558594
31,608.34373,489.044311523438
32,608.39388,413.111358642578
33,608.79458,374.097595214844
34,609.12769,552.512512207031
35,609.78630,374.218994140625
36,609.91229,447.553833007813
37,610.30005,486.449798583984
38,610.54907,380.041656494141
39,610.70059,412.580871582031
40,610.96080,554.125
41,611.12349,443.852081298828
42,611.23052,614.389221191406
43,611.28039,711.326599121094
44,611.35075,368.001068115234
45,611.79701,505.502593994141
46,612.60522,382.024993896484
47,613.16802,372.024993896484
48,613.30629,485.421875
49,613.51642,375.041656494141
50,614.29732,903
51,614.82435,761.093017578125
52,614.97715,449.851348876953
53,615.04650,376.889007568359
54,615.29287,491.048767089844
55,615.34673,831.343017578125
56,615.62513,427.283813476563
57,616.04363,573.333312988281
58,616.20406,1027.033203125
59,616.27542,572.413330078125
60,616.63590,386.938323974609
61,617.29802,903.195190429688
62,617.33369,963.032165527344
63,617.53037,430.166473388672
64,617.59196,543
65,617.90266,470.555053710938
66,618.05460,668.065063476563
67,618.26626,858.033508300781
68,619.30012,1268.12133789063
69,620.22232,495.546813964844
70,620.29055,823.644470214844
71,620.49414,448.664459228516
72,620.61657,406.843139648438
73,621.07089,391.938323974609
74,621.25574,586.89794921875
75,621.31966,879.580444335938
76,621.55634,379
77,621.82890,903.468933105469
78,622.16071,537.182861328125
79,622.29594,510.533081054688
80,623.38998,394.086547851563
81,623.45010,354.495880126953
82,624.00349,472.3828125
83,624.42255,404.136871337891
84,624.54015,368.548828125
85,624.75281,690.719848632813
86,624.79725,738.2109375
87,625.27314,1051.21008300781
88,625.77061,360.346160888672
89,626.04695,364.350006103516
90,626.27947,697.273620605469
91,626.41024,423.740936279297
92,626.56139,517.111083984375
93,626.63646,373.346252441406
94,626.93992,724.951293945313
95,626.98592,525.795959472656
96,627.06562,655.289489746094
97,627.18566,585.030395507813
98,627.29207,542.380187988281
99,627.33102,500.491241455078
100,627.67152,936.380310058594
101,627.74637,704.922058105469
102,627.85105,707.778198242188
103,627.99955,736.489868164063
104,628.14676,852.677734375
105,628.22083,752.576538085938
106,628.28273,1139.81823730469
107,628.41223,703.305114746094
108,628.78376,4573.22802734375
109,628.91622,2780.60888671875
110,628.95885,2489.40258789063
111,629.03058,1922.03210449219
112,629.14403,500.000823974609
113,629.29424,1236.83020019531
114,629.47742,1513.0625
115,629.55830,894.611572265625
116,629.61713,601.245910644531
117,629.71295,567.107482910156
118,629.81957,1123.2216796875
119,629.89315,541.711791992188
120,630.26347,716.585815429688
121,630.47977,576.599975585938
122,630.53608,417.481475830078
123,630.59213,431.012359619141
124,630.73406,394.973999023438
125,630.89681,420.614776611328
126,630.98155,992.016174316406
127,631.62028,449.005950927734
128,631.75479,427.273071289063
129,631.98180,727.776916503906
130,632.05356,840.562805175781
131,632.20612,982.913513183594
132,632.29906,811.17236328125
133,632.33871,534.0947265625
134,632.72036,393.021270751953
135,633.22503,581.8642578125
136,633.29595,612.426147460938
137,633.39893,532.670166015625
138,633.80710,538.061279296875
139,633.89597,729.162658691406
140,633.97802,718.810791015625
141,634.04277,877.30078125
142,634.15530,404.506225585938
143,634.21099,783.00439453125
144,634.30089,1167.5
145,634.34407,584.066650390625
146,634.98010,505.10107421875
147,635.02810,409.677764892578
148,635.31210,802.339111328125
149,635.82427,588.280029296875
150,635.98458,452.783142089844
151,636.05940,1179.02661132813
152,636.31345,1546.60717773438
153,636.64163,774.249206542969
154,636.82529,658.402465820313
155,637.28647,1106.27905273438
156,637.34531,597.538024902344
157,637.64798,539.828430175781
158,637.80421,1298.44445800781
159,637.87302,535.14990234375
160,638.04820,528.141479492188
161,638.09756,503.347686767578
162,638.30274,1317.96032714844
163,638.53435,486.333343505859
164,638.87464,377.003570556641
165,639.30966,636.204895019531
166,639.80099,549.338623046875
167,639.89753,419.238220214844
168,640.19256,424.875
169,640.30932,682.200500488281
170,641.27026,578.010620117188
171,641.35530,493.088165283203
172,641.57095,566.710998535156
173,641.68129,429.120025634766
174,641.82040,436.533630371094
175,642.38665,408.138458251953
176,642.53313,387.470581054688
177,642.63352,508.321807861328
178,642.83460,526.864685058594
179,643.20692,395.149871826172
180,643.32997,853.224975585938
181,643.63179,458.356018066406
182,643.72443,704.33740234375
183,643.85018,420.882873535156
184,643.96316,543.890747070313
185,644.23254,627.039489746094
186,644.32562,1137.42370605469
187,644.99185,641.234558105469
188,645.23799,556.228759765625
189,645.31427,674.25
190,645.37916,365.546722412109
191,645.49584,822.163269042969
192,645.57744,657.695678710938
193,645.72989,445.160705566406
194,645.81364,667.625
195,645.88301,406.146820068359
196,645.97830,621.076171875
197,646.03577,487.353759765625
198,646.29557,717.128540039063
199,646.42544,1145.11572265625
200,646.46011,837.000610351563
201,646.54795,866.667175292969
202,646.81533,517.002563476563
203,647.07544,388.962219238281
204,647.26715,516.004638671875
205,647.33705,623.077575683594
206,647.82162,603.617370605469
207,648.29864,674.090881347656
208,648.44160,576.877197265625
209,648.50436,628.358215332031
210,648.56733,708.200744628906
211,648.63404,834.838562011719
212,649.06155,552.059326171875
213,649.14886,603.805297851563
214,649.31452,1082.10266113281
215,649.40667,382.329711914063
216,649.57414,855.685974121094
217,649.64646,458.017852783203
218,649.71662,737.163024902344
219,649.82515,481.043090820313
220,649.97886,760.414123535156
221,650.13429,1247.89440917969
222,650.30999,1044.0869140625
223,650.39954,510.837127685547
224,650.46386,879.802368164063
225,650.57153,642.265380859375
226,650.68383,496.484069824219
227,650.84138,1144.28051757813
228,650.93976,1009.08001708984
229,651.15029,582.570251464844
230,651.24281,983.274108886719
231,651.32400,1177.37219238281
232,651.57806,1080.11157226563
233,651.65314,940.011901855469
234,651.83472,978.5234375
235,651.91338,502.25
236,652.02833,820.00439453125
237,652.13181,1360.66320800781
238,652.31068,1500.52783203125
239,652.44597,1095.74108886719
240,652.47861,760.366760253906
241,652.93452,13163.013671875
242,653.11511,6263.74365234375
243,653.21861,2602.8720703125
244,653.30648,1665.74523925781
245,653.42198,1266.51025390625
246,653.48546,972.320068359375
247,653.55668,1913.31689453125
248,653.67776,702.692138671875
249,653.74736,655.805053710938
250,653.82539,474
251,653.98516,1136.236328125
252,654.11097,1087.67565917969
253,654.17174,1362.11254882813
254,654.26574,1088.56213378906
255,654.34235,1162.021484375
256,654.40755,932.824096679688
257,654.45604,702.917358398438
258,654.60499,942.645568847656
259,654.74066,513.60498046875
260,654.82545,1035.36181640625
261,654.97783,376.371948242188
262,655.21163,711.678771972656
263,655.32539,920.012634277344
264,655.38605,404.901306152344
265,655.47794,1028.53637695313
266,655.57571,1202.10754394531
267,655.65068,945.573547363281
268,655.84703,1601.48791503906
269,656.03951,1228.36511230469
270,656.12584,519.976623535156
271,656.22755,429.029022216797
272,656.33444,1016
273,656.52324,987.487915039063
274,656.65043,1320.61730957031
275,656.82823,1698.375
276,656.95304,844.074645996094
277,657.11371,424.011108398438
278,657.18847,447.444854736328
279,657.32826,1458.96337890625
280,657.51188,601.342590332031
281,657.56859,671.8173828125
282,657.63343,867.630187988281
283,657.70498,560.125
284,657.86961,642.001770019531
285,658.01110,643.274353027344
286,658.09181,835.915893554688
287,658.17832,631.346801757813
288,658.31754,922.630126953125
289,658.39837,668.444580078125
290,658.49829,641.759033203125
291,658.58666,660.027770996094
292,658.65807,448.699615478516
293,658.79784,841.573486328125
294,658.84935,768.699584960938
295,658.92942,407.627227783203
296,659.03044,539.13037109375
297,659.07418,458.288452148438
298,659.23101,725.599975585938
299,659.35794,589.000610351563
300,659.65013,1714.875
301,659.78473,683.065307617188
302,659.85867,912.062316894531
303,659.98474,820.695495605469
304,660.26333,2245.5615234375
305,660.39428,412.028839111328
306,660.64991,584.53125
307,660.79065,475.455413818359
308,660.88422,806.538330078125
309,661.07461,1022.13800048828
310,661.11394,838.159790039063
311,661.15907,602.530883789063
312,661.29232,1401.15270996094
313,661.48031,418.582244873047
314,661.56051,1184.4580078125
315,661.65143,846.398498535156
316,661.75090,519.0400390625
317,661.81758,1492.92260742188
318,661.90841,434.352935791016
319,662.06012,947.028381347656
320,662.15953,367.054046630859
321,662.24090,714.140808105469
322,662.31425,1362.05126953125
323,662.54956,794.912048339844
324,662.83702,1404.17651367188
325,662.92073,653.221618652344
326,662.96782,552.622497558594
327,663.25168,710.670166015625
328,663.33200,1005.24395751953
329,663.39348,699.833801269531
330,663.45570,665.072082519531
331,663.54505,723.75
332,663.72156,788.845153808594
333,663.81213,403.556030273438
334,664.01075,538.578918457031
335,664.05766,427.790313720703
336,664.12463,509.325592041016
337,664.33721,1458.55749511719
338,664.40248,671.491638183594
339,664.46498,574.10302734375
340,664.56264,595.2607421875
341,664.65832,910.608703613281
342,664.70107,603.105834960938
343,664.75543,539.017639160156
344,664.83417,1114.9775390625
345,665.02170,784.93896484375
346,665.22156,608.174377441406
347,665.33857,1142.86999511719
348,665.55746,560.777770996094
349,665.65459,540.291076660156
350,665.74319,429.431060791016
351,665.83726,500.205139160156
352,666.15101,391.765960693359
353,666.31503,1181.79443359375
354,666.37169,523.578674316406
355,666.58995,1196.31640625
356,666.64650,967.451110839844
357,666.81655,397.617980957031
358,666.87349,378.602264404297
359,666.93364,542.267456054688
360,667.10405,376.449035644531
361,667.16573,530.75
362,667.32618,589.450012207031
363,667.43490,415.880004882813
364,667.58090,420.200714111328
365,667.65499,505.451599121094
366,667.91805,418.490386962891
367,668.08498,548.181823730469
368,668.31862,1173.52905273438
369,668.44146,393.612274169922
370,668.60537,710.885864257813
371,668.70094,484.710845947266
372,668.75660,671.651062011719
373,668.85019,982.972961425781
374,668.95870,532.977294921875
375,669.00588,381.735534667969
376,669.20453,660.412353515625
377,669.29443,534.016784667969
378,669.35556,366.446441650391
379,669.42693,432.230010986328
380,669.54169,356.01220703125
381,669.84987,978.00146484375
382,669.99542,545.826416015625
383,670.09223,576.5537109375
384,670.33859,1618.98937988281
385,670.54050,827.000610351563
386,670.68550,966.684326171875
387,670.81146,1382.53063964844
388,670.95334,1354.41015625
389,671.02430,958.781799316406
390,671.22444,407.001983642578
391,671.33221,1445.13317871094
392,671.52370,1237.88012695313
393,671.59502,889.768005371094
394,671.85319,938.325134277344
395,671.93410,543.8642578125
396,672.03640,932.405517578125
397,672.13903,449.404846191406
398,672.26103,1042.81018066406
399,672.33159,1650.22631835938
400,672.47789,740.416687011719
401,672.53369,473.555541992188
402,672.60428,527.852355957031
403,672.78198,388
404,672.86115,487.726593017578
405,672.96074,930.880065917969
406,673.31500,1224.51330566406
407,673.40929,604.736389160156
408,673.53406,803.388916015625
409,673.70935,485.871124267578
410,673.76460,407.482757568359
411,673.88932,460.408325195313
412,674.32425,1043.43017578125
413,674.82516,1380.74584960938
414,674.94025,671.050842285156
415,675.07036,1171.42797851563
416,675.22633,754.243896484375
417,675.32741,2338.33618164063
418,675.44528,466.684722900391
419,675.57096,1216.46179199219
420,675.64211,586.391479492188
421,675.68085,473.46240234375
422,675.82286,597.457641601563
423,675.88220,461.363647460938
424,676.04275,2373.14575195313
425,676.14501,988.041687011719
426,676.20990,1231.0625
427,676.32199,1245.51245117188
428,676.36545,923.2666015625
429,676.55412,509.625
430,676.65068,1426.07141113281
431,676.72071,1233.53503417969
432,676.83851,2031.59301757813
433,677.07655,597.669128417969
434,677.19408,923.560546875
435,677.32004,1001.48028564453
436,677.46195,1724.25805664063
437,677.60018,1136.46520996094
438,677.74126,1294.5927734375
439,677.85042,1345.06665039063
440,677.96553,1030.5537109375
441,678.08043,402.391143798828
442,678.19994,1503.29943847656
443,678.30814,2631.04345703125
444,678.44195,2179.26879882813
445,678.57086,1884.11767578125
446,679.00244,21580.82421875
447,679.16300,15880.9267578125
448,679.26736,8455.830078125
449,679.35118,5203.77783203125
450,679.55895,3897.98852539063
451,679.67076,1817.60949707031
452,679.72143,2002.06372070313
453,679.79656,2300
454,679.86410,1930.42370605469
455,679.99312,1859.29248046875
456,680.07486,1128.93896484375
457,680.21477,2167.2060546875
458,680.34617,2539.12377929688
459,680.46762,942.385620117188
460,680.60874,1645.62902832031
461,680.69889,1250.45715332031
462,680.84122,1276.96435546875
463,680.95584,1235.82397460938
464,681.02878,1111.189453125
465,681.14133,636.346252441406
466,681.33436,2455.20458984375
467,681.42393,1098.01196289063
468,681.55733,1532.63623046875
469,681.63707,1030.34411621094
470,681.80943,1773.73559570313
471,682.00969,1579.31359863281
472,682.09193,820.57861328125
473,682.15043,826.556457519531
474,682.30801,1297.68957519531
475,682.41608,1352.20812988281
476,682.49747,911.025634765625
477,682.65773,868.746520996094
478,682.81238,1345.25793457031
479,682.87111,665.802490234375
480,682.95462,1068.68591308594
481,683.01893,732.817321777344
482,683.11735,421.157897949219
483,683.34565,1248.9423828125
484,683.43897,899.149230957031
485,683.54709,528.08154296875
486,683.65076,856.105346679688
487,683.90490,725.103454589844
488,684.16728,1055.26745605469
489,684.35486,1246.07177734375
490,684.47871,486.305877685547
491,684.61565,659.028198242188
492,684.67743,550.778930664063
493,684.80948,1201.88903808594
494,684.87306,821.157897949219
495,685.11603,1251.19519042969
496,685.21841,1277.02880859375
497,685.28969,1066.48449707031
498,685.34565,1597.1005859375
499,685.43011,1232.44555664063
500,685.48851,571.364929199219
501,685.55174,651.757568359375
502,685.67486,802.716979980469
503,685.77984,931.89208984375
504,685.86123,816.364868164063
505,686.21573,435.901306152344
506,686.34874,1553.18176269531
507,686.41032,920.77783203125
508,686.50591,800.420471191406
509,686.56640,634.405029296875
510,686.67591,1123.01782226563
511,686.78483,673.018127441406
512,687.02225,1235.7783203125
513,687.18893,705.976440429688
514,687.33606,1362.77941894531
515,687.68702,1088.14990234375
516,687.97293,500.015869140625
517,688.12046,895.571105957031
518,688.24075,684.911376953125
519,688.37948,363.041656494141
520,688.65575,627.446899414063
521,688.73828,371.357391357422
522,688.83195,883.204162597656
523,688.87271,665.342590332031
524,688.95906,534.011901855469
525,689.30671,1446.62731933594
526,689.43655,803.835266113281
527,689.48661,1013.00701904297
528,689.57168,1590.27368164063
529,689.72481,950.6279296875
530,689.82521,1724.26159667969
531,690.08535,1697.57788085938
532,690.19140,1290.26721191406
533,690.31618,1464.38208007813
534,690.63591,472.479278564453
535,690.82008,1067.79443359375
536,690.88328,655.520812988281
537,690.96656,511.252868652344
538,691.09793,817.204162597656
539,691.17352,420.014495849609
540,691.26698,598.260864257813
541,691.34184,1003.49450683594
542,691.45830,606.161193847656
543,691.69706,1064.62744140625
544,691.86471,1156.03442382813
545,691.95146,1061.0537109375
546,692.02318,657.064758300781
547,692.08500,662.790893554688
548,692.18968,513.889404296875
549,692.38785,728.242858886719
550,692.51687,533.049987792969
551,692.57366,550.107421875
552,692.68094,1404.04040527344
553,692.82114,1204.63708496094
554,692.89671,811.880187988281
555,692.97848,1066.59460449219
556,693.06770,615.764343261719
557,693.14153,510.549987792969
558,693.35240,1753.8642578125
559,693.43541,384.149993896484
560,693.57600,2828.51342773438
561,693.68538,510.777984619141
562,693.83401,5328.0732421875
563,694.08086,3578.92114257813
564,694.32761,3263.12622070313
565,694.42654,804.032287597656
566,694.46372,770.015563964844
567,694.57346,893.183898925781
568,694.64024,516.080078125
569,694.69478,472.177337646484
570,694.84353,933.227294921875
571,694.96952,707.012573242188
572,695.15665,545.889709472656
573,695.33131,1397.81787109375
574,695.42285,558.14990234375
575,695.49886,898.889282226563
576,695.58782,640.939392089844
577,695.73271,1016.59417724609
578,695.83802,712.007568359375
579,695.91383,459.033843994141
580,695.96338,725.5693359375
581,696.01157,614.205871582031
582,696.10321,525.223693847656
583,696.16452,558.375
584,696.23894,381.869842529297
585,696.33818,1342.5791015625
586,696.48577,876.599975585938
587,696.63022,842.626403808594
588,696.68517,508.112670898438
589,696.84742,686.556518554688
590,696.96227,704.371032714844
591,697.01689,601.622863769531
592,697.07780,428.388458251953
593,697.31970,905.160705566406
594,697.38634,587.033813476563
595,697.62834,964.5
596,697.74713,535.41015625
597,697.83010,1119.51599121094
598,697.95368,675.493957519531
599,698.05919,997.543579101563
600,698.14600,550.142578125
601,698.33245,1879.39697265625
602,698.43573,485.537231445313
603,698.54011,651.460998535156
604,698.69229,1225.24304199219
605,698.77600,988.880126953125
606,698.82769,1108.9013671875
607,698.89590,1014.05706787109
608,699.16798,896.604187011719
609,699.26326,558.0625
610,699.35594,1093.31311035156
611,699.41877,1100.7265625
612,699.48990,868.360290527344
613,699.58766,518.623107910156
614,699.64185,638.162963867188
615,699.82081,1718.75219726563
616,699.89896,1161.50256347656
617,699.98757,960.0859375
618,700.10996,1202.16076660156
619,700.24022,894.560424804688
620,700.34337,1337.71423339844
621,700.45630,628.211730957031
622,700.58410,1418
623,700.71840,1233.00732421875
624,700.84621,1152.84814453125
625,700.90267,837.583312988281
626,700.96125,383.342468261719
627,701.13406,1330.17016601563
628,701.33261,1088.68273925781
629,701.41918,677.143920898438
630,701.54775,1015.85778808594
631,701.75872,391.347229003906
632,701.87077,879.327026367188
633,702.02261,1040.75549316406
634,702.09664,619.118469238281
635,702.16427,616.360107421875
636,702.23844,445.555908203125
637,702.34855,2299.78686523438
638,702.41195,857.548645019531
639,702.59788,901.560974121094
640,702.69531,1064.00170898438
641,702.82043,1155.23876953125
642,703.03777,1349.01831054688
643,703.23106,2075.80981445313
644,703.35022,2379.05224609375
645,703.41788,609.5
646,703.50884,1041.71105957031
647,703.66871,840.760559082031
648,703.76285,1182.07690429688
649,703.89643,1387.44458007813
650,703.96093,915.14892578125
651,704.20240,2217.51196289063
652,704.34585,1955.39978027344
653,704.44726,1306.84619140625
654,704.55608,1048.61340332031
655,704.64451,669.644470214844
656,704.73760,1119.26599121094
657,704.84387,1096.76599121094
658,704.91750,913.660034179688
659,704.99365,992.6005859375
660,705.05514,809.885925292969
661,705.14799,727.352966308594
662,705.22638,1113.09765625
663,705.35150,2169.71313476563
664,705.45379,1580.0322265625
665,705.63478,1463.60681152344
666,705.86456,1080.47106933594
667,706.02628,1949.82055664063
668,706.12591,1336.10595703125
669,706.54067,3141.2080078125
670,707.27211,35170.71484375
671,707.58362,8009.9423828125
672,707.66678,5041.2109375
673,707.70019,4558.712890625
674,707.97347,5450.98779296875
675,708.16300,3065.19873046875
676,708.19390,3350.88500976563
677,708.35142,3695.86181640625
678,708.49887,4264.37255859375
679,708.62188,4662.22412109375
680,708.70652,3475.4091796875
681,708.74230,3048.46313476563
682,708.87022,2734.6875
683,709.01450,1949.19677734375
684,709.13059,2316.484375
685,709.26142,2096.82348632813
686,709.41119,1787.07727050781
687,709.51235,848.756286621094
688,709.62848,1661.125
689,709.74739,2157.77563476563
690,709.84528,1451.04418945313
691,709.94698,2313.9365234375
692,710.07812,1894.48034667969
693,710.36431,2377.38403320313
694,710.47464,2376.62060546875
695,710.62086,2905.4365234375
696,710.73275,1115.67053222656
697,710.80711,1587.59631347656
698,711.02164,2623.18994140625
699,711.17976,1316.02307128906
700,711.32527,2329.84814453125
701,711.41178,1690.40661621094
702,711.52052,1858.64013671875
703,711.57855,1696.83386230469
704,711.75109,1595.53393554688
705,711.82845,1326.71691894531
706,711.95298,1843.64233398438
707,712.03311,1489.96789550781
708,712.08620,920.664733886719
709,712.17292,1064.76733398438
710,712.26224,1317.92126464844
711,712.38548,1949.59436035156
712,712.43715,1860.017578125
713,712.67629,1540.68591308594
714,712.82446,827.561401367188
715,712.88687,1416.60717773438
716,712.94530,1391.27355957031
717,713.00543,1185.40063476563
718,713.04090,1259.53625488281
719,713.14260,1279.5185546875
720,713.21063,1512.228515625
721,713.34823,1972.09899902344
722,713.52314,1060.04248046875
723,713.58316,971.688354492188
724,713.61347,849.485046386719
725,713.68070,1412.00598144531
726,713.83000,1464.8193359375
727,713.91378,973.520812988281
728,713.99610,726.005187988281
729,714.07941,719.066528320313
730,714.19428,508.688598632813
731,714.36828,2096.01220703125
732,714.56842,2736.30810546875
733,714.68195,2123.20336914063
734,714.77419,1806.47094726563
735,714.82722,1451.37890625
736,714.91606,1520.5205078125
737,715.00300,1461.68603515625
738,715.16770,1171.54370117188
739,715.25096,1038.0927734375
740,715.31003,1202.33288574219
741,715.38597,793.151306152344
742,715.43531,788.72021484375
743,715.51910,1084.55139160156
744,715.61867,1429.61804199219
745,715.84524,1975.59716796875
746,716.02217,864.920104980469
747,716.10766,1625.89221191406
748,716.17212,809.891296386719
749,716.35998,1327.88916015625
750,716.52441,470.905670166016
751,716.60514,763.134216308594
752,716.65889,610.59033203125
753,716.77839,876.069763183594
754,716.90262,1139.98901367188
755,716.94233,1009.84484863281
756,717.00111,809.018188476563
757,717.08846,1716.0693359375
758,717.30686,2045.375
759,717.38781,1477.44006347656
760,717.42213,1380.89294433594
761,717.49847,493.210083007813
762,717.58373,905.759826660156
763,717.70561,940.839538574219
764,717.81733,955.859008789063
765,717.97206,970.302429199219
766,718.03307,535.365356445313
767,718.13855,820.265319824219
768,718.27968,1126.01696777344
769,718.34589,1511.85461425781
770,718.50453,840.012512207031
771,718.61015,1283.07836914063
772,718.85174,965.377624511719
773,719.03612,990.81298828125
774,719.14754,601.199523925781
775,719.19935,545.809814453125
776,719.34490,1047.41418457031
777,719.47583,1104.62976074219
778,719.68857,946.633483886719
779,719.76641,618.556030273438
780,719.88880,913.003601074219
781,720.00272,1196.99658203125
782,720.06974,1495.982421875
783,720.16314,1447.64611816406
784,720.33408,1523.51916503906
785,720.51498,443.775848388672
786,720.62863,889.122741699219
787,720.73576,679.044067382813
788,720.86878,1522.5556640625
789,721.06765,1078.40051269531
790,721.11662,569.033569335938
791,721.34985,1720.37646484375
792,721.57739,2127.51025390625
793,721.67329,1705.40747070313
794,721.84055,2202.05834960938
795,721.94415,866.551086425781
796,722.01511,581
797,722.08281,894.728881835938
798,722.13282,613.404846191406
799,722.34065,1080.6884765625
800,722.48618,634
801,722.54421,481.012634277344
802,722.63064,787.432006835938
803,722.66976,590.333862304688
804,722.79169,603.219177246094
805,722.88728,379.952941894531
806,722.94083,437.387908935547
807,723.01964,1023.93572998047
808,723.19059,898.111083984375
809,723.33920,1781.70263671875
810,723.51907,2195.92016601563
811,723.58388,1311.96032714844
812,723.68775,1237.87890625
813,723.73679,916.018127441406
814,723.79869,720.90380859375
815,723.91511,545.474609375
816,724.01344,980.082824707031
817,724.11223,1194.44189453125
818,724.21135,686.064208984375
819,724.33479,1761.34326171875
820,724.40598,589.001098632813
821,724.49978,762.053833007813
822,724.58923,432.470733642578
823,724.70529,1087.04064941406
824,724.82926,2074.125
825,724.92381,879.353759765625
826,724.96171,692.965087890625
827,725.06186,1151.7861328125
828,725.21644,1374.8603515625
829,725.34085,1491.38623046875
830,725.45675,700.030334472656
831,725.48733,602.031066894531
832,725.58743,1765.33361816406
833,725.83533,2699.52124023438
834,726.01452,1612.41418457031
835,726.09547,1358.7373046875
836,726.17216,617.089965820313
837,726.35565,2284.916015625
838,726.44047,513.122497558594
839,726.48016,428.572784423828
840,726.61635,1634.62805175781
841,726.72716,1710.34130859375
842,726.79645,1523.15539550781
843,726.84672,1868.79235839844
844,726.91600,1085.77270507813
845,727.06826,1237.76196289063
846,727.25825,1445.11938476563
847,727.35341,1303.50524902344
848,727.48554,1199.16821289063
849,727.62970,752.051635742188
850,727.71014,1093.39709472656
851,727.75166,695.926452636719
852,727.85032,1182.18518066406
853,727.99339,1028.80639648438
854,728.04353,1021.34564208984
855,728.13263,1018.22961425781
856,728.26249,859.080139160156
857,728.35189,938.222290039063
858,728.42992,1337.00524902344
859,728.50566,898.085205078125
860,728.57609,679.125
861,728.65494,931.556030273438
862,728.84132,1470.25146484375
863,728.97687,557.792236328125
864,729.10809,620.921081542969
865,729.24195,967.63720703125
866,729.32385,1113.94482421875
867,729.42121,887.276794433594
868,729.51497,1298.17919921875
869,729.58203,907.719848632813
870,729.64495,697.222412109375
871,729.70468,593.357421875
872,729.77408,1292.92492675781
873,729.86234,921.204833984375
874,729.92843,810.222412109375
875,730.02111,1249.64013671875
876,730.08101,624.742980957031
877,730.15316,639.848876953125
878,730.23820,1045.67407226563
879,730.28045,930.730102539063
880,730.46078,1584.87658691406
881,730.54739,1110.24572753906
882,730.59492,1171.3232421875
883,730.76719,1771.53759765625
884,730.85299,1104.14965820313
885,730.92933,990.210021972656
886,731.03093,908.958312988281
887,731.16124,2100.98974609375
888,731.22807,1331.58032226563
889,731.27326,1010.53063964844
890,731.38992,1581.50915527344
891,731.54270,1472.83654785156
892,731.69885,990.679016113281
893,731.78520,547.619873046875
894,731.86134,869.424987792969
895,731.91186,713.063720703125
896,732.02396,1587.05053710938
897,732.09713,750.020629882813
898,732.34160,1233.92919921875
899,732.47802,994.258850097656
900,732.56985,1042.42358398438
901,732.68707,1037.70129394531
902,732.74265,1068.0791015625
903,732.87777,786.193786621094
904,732.99793,1359.28784179688
905,733.25005,1622.45532226563
906,733.35498,1607.09448242188
907,733.44267,1808.11120605469
908,733.60991,1839.05004882813
909,733.79148,1616.28540039063
910,733.83555,1174.39135742188
911,733.88757,898.918395996094
912,734.00474,1740.35046386719
913,734.17576,1230.44714355469
914,734.27585,1358.19079589844
915,734.39284,1439.93908691406
916,734.70983,2070.591796875
917,734.83468,1830.64526367188
918,734.92046,659.314025878906
919,735.04475,847.26318359375
920,735.14426,1229.16076660156
921,735.22857,697.620788574219
922,735.41221,2229.65356445313
923,735.52595,1867.97082519531
924,735.66878,2315.04223632813
925,735.79111,1274.66906738281
926,735.92136,2310.88110351563
927,736.05863,1350.77868652344
928,736.33917,3150.50244140625
929,736.42877,1833.43859863281
930,736.50048,2359.96704101563
931,736.63044,1935.83996582031
932,736.70304,2012.49499511719
933,736.76846,1170.93664550781
934,737.03239,3011.775390625
935,737.19878,2913.296875
936,737.33341,3953.92333984375
937,737.43152,2444.16650390625
938,737.48138,2656.24731445313
939,737.98872,54090.328125
940,738.35417,7834.48974609375
941,738.50749,7585.0380859375
942,738.65743,7991.89599609375
943,738.72890,5911.36181640625
944,738.77417,5165.7705078125
945,738.86271,5005.5859375
946,738.94571,3821.85327148438
947,738.98415,3045.033203125
948,739.01836,2802.65942382813
949,739.34318,5321.65576171875
950,739.46791,3412.00073242188
951,739.60937,3410.48071289063
952,739.71738,1811.53466796875
953,740.01630,4390.65869140625
954,740.13275,3021.56787109375
955,740.20167,3008.09204101563
956,740.37358,4007.6953125
957,740.54953,3299.18774414063
958,740.60450,3008.11376953125
959,740.81025,3671.18872070313
960,741.02427,2093.310546875
961,741.11156,1051.23840332031
962,741.17253,958.098876953125
963,741.26625,2534.66772460938
964,741.38428,1813.03845214844
965,741.49323,1785.39672851563
966,741.59533,2351.521484375
967,741.77250,2217.00854492188
968,741.93142,3142
969,742.05408,1924.72106933594
970,742.27199,4459.8974609375
971,742.41001,2782.47119140625
972,742.52987,3028.166015625
973,742.63935,2893.00561523438
974,742.72062,2692.07861328125
975,742.85170,1527.64233398438
976,742.91020,1149.25134277344
977,742.97480,709.000915527344
978,743.06643,1375.90087890625
979,743.23399,1894.06188964844
980,743.40512,2461.03784179688
981,743.51902,1345.56848144531
982,743.61007,2116.78051757813
983,743.70665,2234.57275390625
984,743.78501,2028.61950683594
985,743.84924,1888.85205078125
986,743.90430,2118.58325195313
987,743.99653,1544.52685546875
988,744.11117,1783.04516601563
989,744.18371,1368.8818359375
990,744.24593,1023.17022705078
991,744.38298,3170.61450195313
992,744.53492,509.067199707031
993,744.72931,2440.23266601563
994,744.86639,930.001098632813
995,744.95890,2763.208984375
996,745.03391,1917.662109375
997,745.15407,2068.6923828125
998,745.26868,3238.56274414063
999,745.36845,2666.37280273438
1000,745.44975,1499.36889648438
1001,745.50314,1251.96826171875
1002,745.63831,1620.95861816406
1003,745.86775,1429.64001464844
1004,746.05022,1962.46044921875
1005,746.15676,1198.96569824219
1006,746.20393,1275.22448730469
1007,746.25794,1308.85302734375
1008,746.35241,1892.43005371094
1009,746.45785,1384.36950683594
1010,746.52828,1325.00561523438
1011,746.60747,1682.60607910156
1012,746.86488,1794.16564941406
1013,746.97863,922.505737304688
1014,747.11063,1759.86267089844
1015,747.33837,2234.6943359375
1016,747.61986,1779.49865722656
1017,747.71726,1312.36071777344
1018,747.78272,671.289367675781
1019,747.82330,709.094970703125
1020,747.85551,766.940795898438
1021,747.93571,1156.55554199219
1022,748.03795,1816.31213378906
1023,748.14609,828.230407714844
1024,748.19655,752.727294921875
1025,748.28353,916.729309082031
1026,748.34693,850.755493164063
1027,748.47286,1742.93359375
1028,748.55949,927.041687011719
1029,748.61632,853.058410644531
1030,748.76384,1095.73522949219
1031,748.85876,974.12841796875
1032,748.99810,1099.02514648438
1033,749.13572,1366.69909667969
1034,749.21204,1206.41320800781
1035,749.35404,1783.36901855469
1036,749.44636,1602.36486816406
1037,749.56406,854.323669433594
1038,749.64537,835.886413574219
1039,749.86622,2503.13623046875
1040,750.00193,1400.14465332031
1041,750.23414,1752.41052246094
1042,750.37959,2399.50952148438
1043,750.46662,1187.08410644531
1044,750.64562,1262.37927246094
1045,750.75320,924.044067382813
1046,750.84717,1516.60485839844
1047,750.96130,982.551086425781
1048,751.03526,1009.49664306641
1049,751.13923,1808.44897460938
1050,751.19549,1245.69226074219
1051,751.36570,2437.29223632813
1052,751.49417,1465.48278808594
1053,751.60880,1666.11474609375
1054,751.69314,1448.46301269531
1055,751.74946,1302.6455078125
1056,751.85199,1777.29089355469
1057,751.94100,1311.3310546875
1058,752.02184,1551.01293945313
1059,752.09046,1047.37780761719
1060,752.13969,1019.29345703125
1061,752.23877,1461.08337402344
1062,752.37803,2017.61511230469
1063,752.72659,1205.65612792969
1064,752.85703,1595.26110839844
1065,752.94290,1240.14990234375
1066,752.98117,1254.64331054688
1067,753.03476,1136.4853515625
1068,753.21292,2125.30029296875
1069,753.32879,1109.58337402344
1070,753.39250,1885.71643066406
1071,753.46124,745.629760742188
1072,753.51354,683.56201171875
1073,753.55475,839.964294433594
1074,753.67765,1344.98229980469
1075,753.77532,770.699279785156
1076,753.86588,1401.37646484375
1077,753.94903,2167.1669921875
1078,754.00812,1269.00695800781
1079,754.14647,1108.07434082031
1080,754.34114,1804.07116699219
1081,754.46211,1664.7978515625
1082,754.64042,1510.93884277344
1083,754.85261,1221.50744628906
1084,754.94223,598.746948242188
1085,755.06293,1554.15502929688
1086,755.12697,957.277038574219
1087,755.25235,1965.53918457031
1088,755.35010,1435.13854980469
1089,755.45141,1122.55029296875
1090,755.53343,498.988220214844
1091,755.63391,969.224975585938
1092,755.75502,829.074157714844
1093,755.86988,835.681030273438
1094,755.97564,1159.70263671875
1095,756.08009,946.16552734375
1096,756.12263,814.339111328125
1097,756.27497,1649.11584472656
1098,756.37066,2169.47924804688
1099,756.49425,770.756164550781
1100,756.69761,1295.04528808594
1101,756.80609,908.360046386719
1102,756.96402,1031.08203125
1103,757.16553,1218.90942382813
1104,757.29785,740.380676269531
1105,757.37724,1664.04064941406
1106,757.44001,1840.689453125
1107,757.48903,1293.13647460938
1108,757.52953,1031.43505859375
1109,757.70719,953.921020507813
1110,757.86559,2091.52905273438
1111,757.90002,1407.00378417969
1112,757.94491,1199.15734863281
1113,758.05797,1133.0625
1114,758.13167,750.058959960938
1115,758.25569,1182.74792480469
1116,758.36737,1678.01513671875
1117,758.57891,1234.22473144531
1118,758.77728,1078.76965332031
1119,758.91950,2131.0029296875
1120,759.03703,1002.89593505859
1121,759.11430,1464.11840820313
1122,759.33435,1942.7197265625
1123,759.47512,1828.08020019531
1124,759.55903,1177.78698730469
1125,759.60729,1126.11364746094
1126,759.72219,1698.29089355469
1127,759.81843,1152.88171386719
1128,759.86944,1247.841796875
1129,759.90666,1146.16259765625
1130,760.00806,863.809692382813
1131,760.03377,701.240051269531
1132,760.13973,1430.98693847656
1133,760.20134,1223.22143554688
1134,760.36352,1505.74670410156
1135,760.45119,1412.28930664063
1136,760.51822,1350.16662597656
1137,760.60453,1035.00244140625
1138,760.67665,1146.00537109375
1139,760.85593,1207.40759277344
1140,761.00446,1307.03576660156
1141,761.06287,977.8935546875
1142,761.22969,1862.2548828125
1143,761.36690,1795.04895019531
1144,761.53649,1805.38610839844
1145,761.58109,1292.63549804688
1146,761.82540,1911.88110351563
1147,761.95913,834.467529296875
1148,762.03599,1618.73486328125
1149,762.17183,1373.03381347656
1150,762.36612,1528.125
1151,762.43834,1025.65856933594
1152,762.51514,461.495574951172
1153,762.72454,1332.4326171875
1154,762.94309,1981.16528320313
1155,763.03678,922.564025878906
1156,763.10049,1006.62890625
1157,763.17767,909.343872070313
1158,763.34236,1296.50256347656
1159,763.50365,1364.42663574219
1160,763.59770,1909.736328125
1161,763.78797,2614.140625
1162,763.90935,1799.64465332031
1163,764.02560,1873.70373535156
1164,764.11797,1026.01806640625
1165,764.20324,1575.90734863281
1166,764.35706,2459.04467773438
1167,764.43956,1437.63366699219
1168,764.56333,1655.31848144531
1169,764.67541,1062.09338378906
1170,764.85998,2480.103515625
1171,764.94454,1266.45654296875
1172,764.98894,1383.09191894531
1173,765.06905,2452.09375
1174,765.12553,1644.5986328125
1175,765.37638,2178.5791015625
1176,765.62070,1646.8125
1177,765.75556,1461.13806152344
1178,765.96174,1615.4453125
1179,766.09084,966.059204101563
1180,766.24449,1134.84118652344
1181,766.37856,2026.15539550781
1182,766.48344,1324.87316894531
1183,766.53907,1438.53601074219
1184,766.64387,2306.09838867188
1185,766.70233,1555.70703125
1186,766.87075,1566.25
1187,767.06318,1878.93078613281
1188,767.13384,1267.86743164063
1189,767.21056,2855.94287109375
1190,767.38039,2691.74560546875
1191,767.55089,1868.7763671875
1192,767.61410,1056.15258789063
1193,767.72955,1586.62902832031
1194,767.84672,2202.22314453125
1195,768.00160,2121.2578125
1196,768.10378,3219.3798828125
1197,768.19293,2049.80419921875
1198,768.25461,2021.4970703125
1199,768.36251,1986.48095703125
1200,768.50732,1852.57653808594
1201,768.67645,1648.349609375
1202,768.90223,3736.6318359375
1203,769.05081,2167.96704101563
1204,769.13668,2630.32153320313
1205,769.35982,2388.08276367188
1206,769.53129,1548.42724609375
1207,769.66336,1849.17370605469
1208,769.84933,2346.5625
1209,770.02913,2540.04296875
1210,770.15661,2944.43188476563
1211,770.30688,1940.33801269531
1212,770.67825,5223.380859375
1213,770.91993,4389.51953125
1214,771.48455,79192.6953125
1215,771.82422,19299.69140625
1216,772.20606,11127.66796875
1217,772.50240,4451.84375
1218,772.86277,8655.0322265625
1219,773.03787,7213.6875
1220,773.17079,3227.5068359375
1221,773.25642,2450.07446289063
1222,773.37328,5120.6796875
1223,773.60750,5991.97265625
1224,773.75035,3840.859375
1225,773.81035,4360.27392578125
1226,773.89916,3148.37670898438
1227,773.95269,3389.68237304688
1228,774.31492,5440.64013671875
1229,774.47536,3738.60546875
1230,774.54258,4082.04931640625
1231,774.60130,3104.87573242188
1232,774.95289,4086.17456054688
1233,775.10096,2486.41625976563
1234,775.30877,3010.38745117188
1235,775.43541,2031.1142578125
1236,775.49420,1859.03173828125
1237,775.86202,7504.97216796875
1238,775.98733,5009.80517578125
1239,776.07363,5980.68994140625
1240,776.18928,3471.20385742188
1241,776.24825,3132.31323242188
1242,776.35389,4293.81298828125
1243,776.49961,3482.142578125
1244,776.58806,2601.74609375
1245,776.63258,2469.72436523438
1246,776.69175,2682.3466796875
1247,776.84637,3599.41137695313
1248,777.00353,2717.54248046875
1249,777.10470,3197.3408203125
1250,777.18909,1773.56689453125
1251,777.33650,3581.32666015625
1252,777.47929,2894.32446289063
1253,777.58770,1736.32006835938
1254,777.73767,4537.0322265625
1255,777.81381,3308.53759765625
1256,777.90178,2526.64868164063
1257,777.99828,2494.56201171875
1258,778.06474,2754.55688476563
1259,778.16813,2169.36010742188
1260,778.36757,2627.34204101563
1261,778.48282,1377.90710449219
1262,778.57421,1812.81591796875
1263,778.72797,2984.6064453125
1264,778.88815,2239.25854492188
1265,779.05140,2398.69140625
1266,779.15838,2765.40380859375
1267,779.25415,1964.20129394531
1268,779.36958,3745.92749023438
1269,779.48660,1971.19995117188
1270,779.68623,2000.34387207031
1271,779.84033,2371.67431640625
1272,779.90793,1512.45751953125
1273,780.04027,1147.60571289063
1274,780.20131,1339.92590332031
1275,780.37157,2241.59033203125
1276,780.58001,2180.89721679688
1277,780.76628,2686.60424804688
1278,780.88196,2847.72680664063
1279,780.96591,1965.14123535156
1280,781.03746,2660.40014648438
1281,781.13658,1773.93420410156
1282,781.21035,1846.11120605469
1283,781.36287,2831.37377929688
1284,781.45036,1383.04162597656
1285,781.68845,2980.9609375
1286,781.76445,2132.69555664063
1287,781.90109,2552.28515625
1288,782.00726,1472.04284667969
1289,782.09706,1104.75561523438
1290,782.23393,1681.2724609375
1291,782.39326,2875.2568359375
1292,782.53132,1582.69213867188
1293,782.61006,2173.47705078125
1294,782.66661,1244.8955078125
1295,782.85249,2017.00048828125
1296,783.16374,1168.55688476563
1297,783.27974,1454.25451660156
1298,783.38034,1670.11108398438
1299,783.55649,2237.69555664063
1300,783.67741,2322.04223632813
1301,783.76734,1511.4521484375
1302,783.81083,1453.43579101563
1303,783.87151,1402.20227050781
1304,784.00653,1099.25402832031
1305,784.06372,830.560180664063
1306,784.20519,1937.30639648438
1307,784.25285,1278.46936035156
1308,784.37610,2359.87646484375
1309,784.58915,1669.95935058594
1310,784.68951,1651.44934082031
1311,784.77159,1144.27075195313
1312,784.80845,949.213989257813
1313,784.90569,1367.36108398438
1314,785.14105,2431.00366210938
1315,785.38133,2735.30810546875
1316,785.54489,1941.20642089844
1317,785.61201,1281.93493652344
1318,785.71292,1082.0078125
1319,785.87184,2794.48974609375
1320,786.14743,2529.7109375
1321,786.25815,2137.00708007813
1322,786.37703,3116.31274414063
1323,786.50421,1563.30908203125
1324,786.56564,1668.66088867188
1325,786.81074,1910.16125488281
1326,787.02651,1543.13159179688
1327,787.16692,1338.44982910156
1328,787.29103,1037
1329,787.37905,1820.05297851563
1330,787.49291,1402.49035644531
1331,787.62571,850.737731933594
1332,787.85310,3141.15673828125
1333,787.95561,1525.05676269531
1334,788.03245,1507.30615234375
1335,788.12169,1565.0234375
1336,788.37947,3175.83569335938
1337,788.47363,2200.14892578125
1338,788.61973,2214.11743164063
1339,788.70066,1641.44213867188
1340,788.83061,1464.77880859375
1341,788.88812,1201.31408691406
1342,789.04394,1822.25537109375
1343,789.14394,1800.74719238281
1344,789.21944,1937.16772460938
1345,789.37355,2493.56811523438
1346,789.47622,1462.8935546875
1347,789.65790,1471.03308105469
1348,789.86822,2155.40087890625
1349,790.00932,1583.125
1350,790.12779,1622.28723144531
1351,790.20722,1513.00415039063
1352,790.39544,3532.56665039063
1353,790.49449,1113.52966308594
1354,790.61531,1919.58447265625
1355,790.71414,1298.24792480469
1356,790.85942,1335.81762695313
1357,790.93745,1389.4306640625
1358,791.08081,1516.02319335938
1359,791.24086,1612.76440429688
1360,791.37425,2104.46557617188
1361,791.46885,1429.96459960938
1362,791.58976,1606.97766113281
1363,791.68965,1542.90185546875
1364,791.88329,2149.78076171875
1365,791.98914,1788.11572265625
1366,792.15115,2008.90966796875
1367,792.27274,1804.40478515625
1368,792.38669,2554.58032226563
1369,792.56717,634.416687011719
1370,792.68059,1156.08349609375
1371,792.76081,1384.19848632813
1372,792.86537,1538.90368652344
1373,792.95251,906.440124511719
1374,793.07214,2100.03662109375
1375,793.13785,1406.88537597656
1376,793.27140,1661.45166015625
1377,793.37970,3196.94702148438
1378,793.47521,1252.16784667969
1379,793.53496,1080.93078613281
1380,793.82066,2645.28442382813
1381,793.95142,1286.71228027344
1382,794.06223,1815.443359375
1383,794.12394,1546.32788085938
1384,794.16301,1115.94592285156
1385,794.39420,2419.47119140625
1386,794.48816,1137.01245117188
1387,794.57579,1569.82043457031
1388,794.67021,1869.244140625
1389,794.85104,1502.22875976563
1390,794.94854,1251.3701171875
1391,795.08851,1698.71044921875
1392,795.24268,2115.060546875
1393,795.37339,2446.00146484375
1394,795.46348,1570.16381835938
1395,795.53348,1438.88464355469
1396,795.72370,1668.70593261719
1397,795.87445,1436.68493652344
1398,795.94047,1121.33459472656
1399,796.02660,2052.33325195313
1400,796.09445,1437.2958984375
1401,796.14560,1474.87805175781
1402,796.20995,1040.5
1403,796.26433,1437.73828125
1404,796.33050,1222.68444824219
1405,796.38486,1983.31958007813
1406,796.59772,1332.87194824219
1407,796.69258,895.460083007813
1408,796.74692,771.390258789063
1409,796.89984,2442.6806640625
1410,796.99906,1448.92346191406
1411,797.04398,1271.04711914063
1412,797.14115,1396.19519042969
1413,797.27793,2123.27685546875
1414,797.41950,1872.66870117188
1415,797.52405,1302.33215332031
1416,797.71633,1613.4921875
1417,797.80183,1293.86877441406
1418,797.97304,882.04541015625
1419,798.07754,1262.38293457031
1420,798.27490,1560.2431640625
1421,798.38926,2224.71655273438
1422,798.54971,1722.19665527344
1423,798.63795,1162.16076660156
1424,798.71442,1056.88684082031
1425,798.93273,1887.72119140625
1426,799.06719,978.543212890625
1427,799.18685,1501.39978027344
1428,799.28375,969.705871582031
1429,799.38651,2882.64331054688
1430,799.46987,1155.08166503906
1431,799.54228,2460.87182617188
1432,799.72084,1550.67785644531
1433,799.89195,1917.73474121094
1434,800.00256,2744.47119140625
1435,800.13747,3102.1318359375
1436,800.25173,1364.56140136719
1437,800.36103,1598.16003417969
1438,800.56323,1589.22668457031
1439,800.69697,1329.125
1440,800.89096,1970.18920898438
1441,801.18545,1274.73620605469
1442,801.36923,2447.5107421875
1443,801.53050,1413.69421386719
1444,801.65493,1266.6171875
1445,801.85416,1778.06176757813
1446,801.92848,1861.80517578125
1447,802.04036,2196.021484375
1448,802.20519,1357.12268066406
1449,802.31791,1343.04724121094
1450,802.38046,1833.43029785156
1451,802.45321,1161.01782226563
1452,802.60096,1649.7919921875
1453,802.77195,995.918884277344
1454,802.89265,1231.1552734375
1455,803.02273,1310.58825683594
1456,803.21203,1807.30688476563
1457,803.35474,2397.00439453125
1458,803.45699,1228.13635253906
1459,803.54507,1065.2109375
1460,803.66386,1557.21911621094
1461,803.92377,1886.16345214844
1462,804.07987,2244.0439453125
1463,804.61269,4312.2958984375
1464,804.75746,2189.47119140625
1465,804.85639,2348.03051757813
1466,805.04723,3370.44458007813
1467,805.34948,4283.33203125
1468,805.47204,2611.435546875
1469,805.51655,2391.23779296875
1470,805.59732,1526.80053710938
1471,805.73030,3407.70678710938
1472,805.83706,1451.41589355469
1473,806.01093,2157.55688476563
1474,806.20857,2584.28686523438
1475,806.27921,2059.13037109375
1476,806.40506,4205.7861328125
1477,806.49555,3099.4140625
1478,806.54762,2901.48779296875
1479,806.64268,4312.49951171875
1480,806.76256,2739.73657226563
1481,806.92975,4520.5361328125
1482,807.27328,8710.240234375
1483,807.42113,8627.033203125
1484,807.57936,6734.15185546875
1485,808.16001,117605.7734375
1486,808.39028,61883.43359375
1487,808.57378,15578.0859375
1488,808.71294,1865.91491699219
1489,808.91974,7215.93115234375
1490,809.19857,2112.96240234375
1491,809.63114,8281.626953125
1492,809.85831,4106.72705078125
1493,809.96245,1759.52624511719
1494,810.03039,412.364654541016
1495,810.17192,1890.82678222656
1496,810.38167,6354.77490234375
1497,810.49198,4374.73828125
1498,810.56422,2848.17578125
1499,810.60769,2039.46411132813
1500,810.69035,2304.79760742188
1501,810.78961,2764.6181640625
1502,810.89517,1046.48510742188
1503,811.13949,4377.8662109375
1504,811.31534,2359.44897460938
1505,811.39836,4775.876953125
1506,811.51600,1321.01708984375
1507,811.61729,1469.95385742188
1508,811.71256,949.001281738281
1509,811.89676,4795.20947265625
1510,812.03628,4555.5146484375
1511,812.10472,3311.34692382813
1512,812.80237,10993.6748046875
1513,813.03052,7910.994140625
1514,813.38063,5982.0009765625
1515,813.65487,4963.13427734375
1516,813.75928,4156.267578125
1517,813.82594,3270.49682617188
1518,814.12701,4298.6025390625
1519,814.42206,4258.16064453125
1520,814.51888,2999.0224609375
1521,814.61129,2407.56762695313
1522,814.68915,2699.779296875
1523,814.90956,4147.58251953125
1524,815.10885,2872.00024414063
1525,815.18151,2500.9794921875
1526,815.35527,3031.79418945313
1527,815.45591,3343.56323242188
1528,815.53509,2699.56518554688
1529,815.65327,3167.5224609375
1530,815.78646,3872.2802734375
1531,815.95270,2304.2841796875
1532,816.04648,1945.35766601563
1533,816.10761,2367.63720703125
1534,816.41993,4246.7060546875
1535,816.51309,2556.296875
1536,816.57872,2698.08178710938
1537,816.64178,1877.51281738281
1538,816.76654,2603.79614257813
1539,816.91068,2233.10180664063
1540,816.97068,1470.79162597656
1541,817.20581,3643.20581054688
1542,817.28252,2129.87719726563
1543,817.42019,4758.93310546875
1544,817.50397,3327.00024414063
1545,817.62174,3116.986328125
1546,817.74005,2538.94506835938
1547,817.87340,2737.9130859375
1548,817.95513,2465.32421875
1549,818.02908,2548.13037109375
1550,818.13170,2781.90966796875
1551,818.19175,2330.92260742188
1552,818.25946,2064.76245117188
1553,818.37701,2502.83251953125
1554,818.44986,2213.7529296875
1555,818.50965,1374.60046386719
1556,818.73426,2508.48193359375
1557,818.90261,1222.76501464844
1558,819.03472,2119.443359375
1559,819.09184,1637.03918457031
1560,819.18224,2720.14624023438
1561,819.45311,2750.43627929688
1562,819.61532,1964.50109863281
1563,819.72779,1639.01513671875
1564,819.93997,2549.86279296875
1565,820.04299,1946.61511230469
1566,820.10613,1309.76062011719
1567,820.19926,2669.06201171875
1568,820.42611,3057.40893554688
1569,820.54218,2549.65991210938
1570,820.62471,2167.44897460938
1571,820.67102,2380.13134765625
1572,820.76774,1419.23706054688
1573,820.88296,1399.56506347656
1574,820.97211,1033.77819824219
1575,821.17503,3000.49438476563
1576,821.28800,2101.7099609375
1577,821.41786,3684.18603515625
1578,821.51807,2140.07861328125
1579,821.58150,2133.853515625
1580,821.65562,1573.8203125
1581,821.70480,1665.322265625
1582,821.75926,1589.50769042969
1583,821.89416,2098.6533203125
1584,822.00576,1003.52502441406
1585,822.09310,1009.33728027344
1586,822.35811,2237.81591796875
1587,822.47486,2261.37353515625
1588,822.63963,2180.89282226563
1589,822.80585,2379.54248046875
1590,822.89312,2244.43408203125
1591,822.98699,3406.25463867188
1592,823.16013,2307.66259765625
1593,823.25470,2401.32470703125
1594,823.40438,4138.77880859375
1595,823.44502,2878.904296875
1596,823.53845,2071.49438476563
1597,823.62282,1217.19763183594
1598,823.76079,2274.90747070313
1599,823.86423,2306.32690429688
1600,823.98826,1657.00988769531
1601,824.06508,1670.15161132813
1602,824.23080,1832.45922851563
1603,824.39221,2480.51123046875
1604,824.48920,1583.5732421875
1605,824.74991,2361.93872070313
1606,824.92819,1478.67199707031
1607,825.01608,1871.3291015625
1608,825.09074,1474.33203125
1609,825.14258,1969.21228027344
1610,825.24834,1952.29626464844
1611,825.38032,2482
1612,825.52637,1429.04077148438
1613,825.61925,2048.2138671875
1614,825.72651,1701.64001464844
1615,825.82437,1522.49267578125
1616,825.88673,1125.19543457031
1617,826.03785,1799.29675292969
1618,826.12975,1391.53967285156
1619,826.23366,2148.49755859375
1620,826.44472,2697.00341796875
1621,826.59503,1809.95275878906
1622,826.74310,2216.47900390625
1623,826.85342,1982.23828125
1624,826.93847,1610.08569335938
1625,826.99973,1946.076171875
1626,827.07391,1930.00598144531
1627,827.14329,1511.56799316406
1628,827.22530,1455.09790039063
1629,827.41513,3169.13623046875
1630,827.52093,2205.25341796875
1631,827.60210,1444.97863769531
1632,827.67957,817.522399902344
1633,827.72688,660.405151367188
1634,827.91616,2391.25415039063
1635,828.01954,1394.56457519531
1636,828.08302,1466.19165039063
1637,828.14908,2102.0419921875
1638,828.22282,1720.37670898438
1639,828.33082,2191.93603515625
1640,828.44366,2746.68432617188
1641,828.51626,1784.61767578125
1642,828.58101,1849.62890625
1643,828.63123,1629.83569335938
1644,828.66058,1546.7783203125
1645,828.76402,1536.00561523438
1646,828.95737,2669.00024414063
1647,829.07242,2214.46948242188
1648,829.12838,1634.57116699219
1649,829.27037,2911.91674804688
1650,829.39538,2040.80126953125
1651,829.53869,2620.14819335938
1652,829.71144,2172.44018554688
1653,829.77628,1769.55334472656
1654,829.86064,2114.119140625
1655,829.93023,2086.92993164063
1656,830.13124,2638.00024414063
1657,830.34296,2080.77807617188
1658,830.42502,1909.85510253906
1659,830.46635,1894.33825683594
1660,830.55359,1073.06079101563
1661,830.63217,1766.87927246094
1662,830.70606,1527.95300292969
1663,830.83003,2052.69409179688
1664,830.95518,1446.02038574219
1665,831.02986,1767.46130371094
1666,831.18319,1921.83679199219
1667,831.28379,2858.56762695313
1668,831.39859,2549.54125976563
1669,831.52252,1906.25598144531
1670,831.59066,1511.01342773438
1671,831.63824,2007.72485351563
1672,831.72814,1568.44140625
1673,831.85392,1505.015625
1674,831.91265,1145.29870605469
1675,832.03669,1881.68005371094
1676,832.17494,1292.51110839844
1677,832.21778,806.05712890625
1678,832.27879,1350.01049804688
1679,832.41080,3113.291015625
1680,832.57919,2161.06420898438
1681,832.66800,1399.58605957031
1682,832.71529,1038.08251953125
1683,832.81698,753.25
1684,832.91565,1103.68640136719
1685,832.99753,1335.95593261719
1686,833.07471,1664.36474609375
1687,833.12671,1067.2666015625
1688,833.22759,748.205749511719
1689,833.27898,982.884643554688
1690,833.39930,2250.46948242188
1691,833.58259,2067.47924804688
1692,833.64823,1253.61486816406
1693,833.72753,1492.24377441406
1694,833.93364,2177.60571289063
1695,834.12866,1252.93310546875
1696,834.18698,1101.27233886719
1697,834.30850,1841.13232421875
1698,834.40039,2653.73046875
1699,834.47342,1838.75561523438
1700,834.60560,1435.47326660156
1701,834.94785,2677.17407226563
1702,835.06945,1452.32177734375
1703,835.13172,1460.51257324219
1704,835.29765,2924.677734375
1705,835.41990,2448.89013671875
1706,835.51990,2144.57397460938
1707,835.57408,1341
1708,835.73689,2601.81127929688
1709,835.83472,1213.1611328125
1710,835.93381,1577.76940917969
1711,836.06051,1760.10900878906
1712,836.14902,2113.06176757813
1713,836.18417,1625.73645019531
1714,836.25382,1629.41564941406
1715,836.42579,2519.2626953125
1716,836.61377,1975.57263183594
1717,836.74477,1152.36938476563
1718,836.80443,962.947692871094
1719,837.01568,2924.22583007813
1720,837.12929,3311.03955078125
1721,837.24686,1416.85961914063
1722,837.32401,1731.142578125
1723,837.41323,2720.20751953125
1724,837.49703,1959.59741210938
1725,837.58238,1869.80639648438
1726,837.63966,1694.06994628906
1727,837.68897,1574.720703125
1728,837.76367,2185.94775390625
1729,837.91002,1859.35180664063
1730,838.08583,2683.16772460938
1731,838.20469,1179.62390136719
1732,838.27798,1801.59997558594
1733,838.40178,4933.599609375
1734,838.51582,2944.33715820313
1735,838.60617,2430.08959960938
1736,838.67460,1678.18383789063
1737,838.73787,3513.11157226563
1738,838.84522,1981
1739,839.03261,3241.89599609375
1740,839.15950,2082.25
1741,839.35948,4399.380859375
1742,839.49951,2402.78002929688
1743,839.66510,1658.15783691406
1744,839.80286,2920.07446289063
1745,839.91583,3413.92041015625
1746,840.01284,3354.66674804688
1747,840.16155,3414.41040039063
1748,840.32305,2197.10815429688
1749,840.41577,2529.9921875
1750,840.53999,2297.79638671875
1751,840.61899,1960.51245117188
1752,840.65524,1849.02624511719
1753,840.70809,1745.00170898438
1754,840.80410,1626.43981933594
1755,840.87688,2246.27197265625
1756,840.94950,1649.43237304688
1757,841.00635,2065.00512695313
1758,841.16691,1486.04260253906
1759,841.26360,1264.00183105469
1760,841.41890,2770.49340820313
1761,841.49585,1589.67395019531
1762,841.63706,2133.95849609375
1763,841.68066,1363.03186035156
1764,841.76278,1313.68029785156
1765,841.96142,2041.69323730469
1766,842.05141,2253.53198242188
1767,842.11141,1431.01049804688
1768,842.20193,1182.80261230469
1769,842.27617,1029.13806152344
1770,842.44009,2067.13232421875
1771,842.61787,2601.45825195313
1772,842.77718,1683.00158691406
1773,842.91082,1297.43542480469
1774,843.07090,2193.82788085938
1775,843.14919,1489.79724121094
1776,843.27698,2102.76440429688
1777,843.41216,2737.74462890625
1778,843.54501,1918.11975097656
1779,843.68187,1436.37866210938
1780,843.94772,2503.29125976563
1781,844.05842,1579.78369140625
1782,844.11017,1509.81091308594
1783,844.19779,1765.00903320313
1784,844.25696,1373.37683105469
1785,844.39704,2441.625
1786,844.47340,2047.03271484375
1787,844.56120,2462.94482421875
1788,844.60699,1577.45434570313
1789,844.86704,3901.81811523438
1790,845.03767,2419.88598632813
1791,845.09649,3188.0126953125
1792,845.21711,2485.07763671875
1793,845.43711,4365.162109375
1794,845.57082,4088.38208007813
1795,845.64550,3324.73559570313
1796,845.76177,4045.35278320313
1797,845.88375,4500.72021484375
1798,845.95132,3592.43383789063
1799,845.99611,2912.3076171875
1800,846.05736,2390.11743164063
1801,846.15874,2416.13696289063
1802,846.25058,1794.32006835938
1803,846.38782,3192.0966796875
1804,846.45658,2821.36059570313
1805,846.56007,2772.88159179688
1806,847.01257,5681.54443359375
1807,847.20885,5498.302734375
1808,847.68631,8336.6083984375
1809,847.92785,5648.7958984375
1810,848.54064,145239.59375
1811,849.27028,13224.1513671875
1812,849.44438,1575.62365722656
1813,849.71395,507.827026367188
1814,850.05781,6414.0771484375
1815,850.33260,4004.86767578125
1816,850.43353,1876.03295898438
1817,850.51654,1925.73449707031
1818,850.62510,1133.19848632813
1819,850.95523,4459.125
1820,851.19524,3266.1201171875
1821,851.29117,1984.53625488281
1822,851.35739,1990.72692871094
1823,851.47890,2805.90991210938
1824,851.54615,1589.09533691406
1825,851.72365,2861.578125
1826,851.88629,1193.14855957031
1827,851.94698,847.201599121094
1828,852.01299,1056.83630371094
1829,852.10410,822.528015136719
1830,852.23601,2226.69897460938
1831,852.30121,1654.763671875
1832,852.39174,3594.20556640625
1833,852.50001,4092.92553710938
1834,852.80753,2855.10668945313
1835,852.94175,2674.48706054688
1836,853.37423,17455.109375
1837,853.51867,11681.69140625
1838,853.69615,6320.60595703125
1839,853.75444,6793.49169921875
1840,853.83542,6982.0888671875
1841,854.00246,7759.91748046875
1842,854.14953,6580.60595703125
1843,854.18645,6079.22705078125
1844,854.24482,5756.70556640625
1845,854.42209,6042.685546875
1846,854.58718,5149.27099609375
1847,854.64783,5093.04296875
1848,854.74409,4765.14306640625
1849,854.88756,5376.0400390625
1850,854.97891,6240.22509765625
1851,855.07976,5427.3359375
1852,855.17960,3706.50341796875
1853,855.30703,4758.54931640625
1854,855.41677,4726.57177734375
1855,855.66790,5084.017578125
1856,855.90583,3395.71606445313
1857,856.04479,3706.13549804688
1858,856.10309,2692.10791015625
1859,856.18076,3788.84497070313
1860,856.36826,4300.4111328125
1861,856.56515,3474.90673828125
1862,856.71424,3885.14770507813
1863,856.84423,2717.80395507813
1864,856.93855,1883.02282714844
1865,857.06054,3993.74169921875
1866,857.14105,2602.73120117188
1867,857.25940,3086.09985351563
1868,857.41526,3372.39916992188
1869,857.65472,3974.1953125
1870,857.87381,3947.5029296875
1871,858.01758,4108.099609375
1872,858.08772,3159.81762695313
1873,858.14495,3288.708984375
1874,858.20681,3298.99340820313
1875,858.27242,2649.40014648438
1876,858.36507,4848.12548828125
1877,858.50995,3086.20727539063
1878,858.64229,2969.69384765625
1879,858.74276,2144.78295898438
1880,858.82690,2842.96606445313
1881,858.90719,2033.02160644531
1882,858.98128,2916.380859375
1883,859.11260,2742.36303710938
1884,859.16026,2310.9775390625
1885,859.36776,3179.97729492188
1886,859.47227,1434.24792480469
1887,859.54897,2091.79858398438
1888,859.68784,3022.783203125
1889,859.82723,3292.18212890625
1890,860.00112,2341.14794921875
1891,860.11734,1762.30322265625
1892,860.20418,1489.83435058594
1893,860.43887,2512.40844726563
1894,860.63141,2087.30639648438
1895,860.74545,2228.21240234375
1896,860.96328,3101.24340820313
1897,861.06525,1953.70373535156
1898,861.19340,2173.65014648438
1899,861.29241,2154.89013671875
1900,861.44176,2914.0888671875
1901,861.69642,1581.04309082031
1902,861.92317,2802.248046875
1903,862.16543,2602.80029296875
1904,862.31974,2189.8779296875
1905,862.41780,2171.31420898438
1906,862.64075,2559.00024414063
1907,862.79974,3346.1796875
1908,862.93365,3069.54272460938
1909,863.15003,2457.5234375
1910,863.43388,3375.13623046875
1911,863.58293,2959.34741210938
1912,863.88017,2893.30200195313
1913,864.05252,3395.32788085938
1914,864.10957,2378.18383789063
1915,864.30472,2346.98413085938
1916,864.43372,2813.44189453125
1917,864.74630,2058.0576171875
1918,864.85628,1946.96264648438
1919,864.96891,2377.35595703125
1920,865.07202,2010.72888183594
1921,865.18000,1936.49755859375
1922,865.26031,2186.01196289063
1923,865.30189,1736.80505371094
1924,865.43213,3306.93823242188
1925,865.54692,2343.75512695313
1926,865.61500,1695.95886230469
1927,865.77315,1799.01818847656
1928,866.01222,2167.55883789063
1929,866.21201,2010.82604980469
1930,866.42054,2504.12426757813
1931,866.54727,1519.6796875
1932,866.63423,1122.01538085938
1933,866.91380,2381.939453125
1934,867.01302,1183.06579589844
1935,867.10618,1754.44946289063
1936,867.17228,1650.45568847656
1937,867.39924,2558.16381835938
1938,867.60485,1904.849609375
1939,867.65867,1362.21057128906
1940,867.70655,1833.82165527344
1941,867.84971,2766.13696289063
1942,868.00551,3025.26171875
1943,868.14433,2690.11352539063
1944,868.22814,1822.03918457031
1945,868.30565,1874.11938476563
1946,868.41509,2809.0048828125
1947,868.47707,2088.27172851563
1948,868.54657,1891.80480957031
1949,868.73745,3349.240234375
1950,868.84226,1845.13146972656
1951,868.95855,2041.97229003906
1952,869.05657,1956.73608398438
1953,869.16814,1649.97290039063
1954,869.43412,3416.00073242188
1955,869.55988,2467.56884765625
1956,869.67740,1751.94348144531
1957,869.84522,2405.75341796875
1958,869.96916,1732.4423828125
1959,870.02779,2102.91845703125
1960,870.10445,1952.31530761719
1961,870.19881,1746.62976074219
1962,870.41176,2258.46142578125
1963,870.57641,2427.98364257813
1964,870.86285,2516.66943359375
1965,870.95678,2479.31567382813
1966,871.26721,3119.15478515625
1967,871.42289,2818.08154296875
1968,871.51701,2126.04223632813
1969,871.58561,1583.53283691406
1970,871.71070,1559.14208984375
1971,871.83307,2255.70239257813
1972,871.89570,1621.44860839844
1973,871.97454,1433.51245117188
1974,872.02569,1325.5625
1975,872.09007,1903.00024414063
1976,872.25879,2587.65747070313
1977,872.41832,2574.60522460938
1978,872.50026,2468.40405273438
1979,872.57510,2513.35546875
1980,872.61989,2154.17749023438
1981,872.75187,1421.91906738281
1982,872.90060,2278.01806640625
1983,873.07304,1765.00207519531
1984,873.31295,4012.58813476563
1985,873.42607,3196.83935546875
1986,873.53048,2917.81274414063
1987,873.64842,2806.728515625
1988,873.77458,2319.81787109375
1989,873.83943,2541.26782226563
1990,873.88492,2075.20825195313
1991,873.96123,3145.8544921875
1992,874.08727,2180.0107421875
1993,874.20739,1663.07751464844
1994,874.43313,3332.51049804688
1995,874.53352,2441.20727539063
1996,874.73172,4088.14697265625
1997,874.85847,2323.85009765625
1998,874.91950,2818.9609375
1999,874.99094,2033.10827636719
2000,875.15421,3163.38842773438
2001,875.39436,2424.35815429688
2002,875.52727,2619.0009765625
2003,875.65991,2526.26342773438
2004,875.82318,2416.21899414063
2005,875.92318,2221.38842773438
2006,876.06143,1862.03735351563
2007,876.19105,1296.13122558594
2008,876.28836,1379.265625
2009,876.32663,1276.21130371094
2010,876.47849,2399.51171875
2011,876.66553,1684.56909179688
2012,876.70784,1473.51245117188
2013,876.80326,2013.56640625
2014,877.04058,1919.2451171875
2015,877.18125,1483.17761230469
2016,877.23766,974.136291503906
2017,877.29195,1094.67651367188
2018,877.44312,2133.62231445313
2019,877.55781,1153.00231933594
2020,877.68088,1286.64318847656
2021,877.77709,933.230773925781
2022,877.91139,2133.6484375
2023,878.10574,2445.53735351563
2024,878.24764,1942.68444824219
2025,878.43511,2157.70434570313
2026,878.69263,2247.00463867188
2027,878.97745,3291.36743164063
2028,879.10435,2830.79565429688
2029,879.16365,2697.1845703125
2030,879.26179,2138.57739257813
2031,879.42222,4625.07275390625
2032,879.53258,3630.07250976563
2033,879.65044,2380.11254882813
2034,879.73867,1601.12255859375
2035,879.93386,2433.89794921875
2036,880.12512,1181.66845703125
2037,880.19179,1632.38940429688
2038,880.30902,2333.29296875
2039,880.52313,2907.73950195313
2040,880.73240,2653.68237304688
2041,880.79992,2542.96118164063
2042,880.88884,2183.20190429688
2043,880.95051,2982.00415039063
2044,881.11334,2135.35107421875
2045,881.18753,1685.87939453125
2046,881.41226,3173.2734375
2047,881.55684,2866.1884765625
2048,881.77219,3229.00146484375
2049,881.88245,1680.00207519531
2050,881.95331,2062.17626953125
2051,882.11671,2358.10766601563
2052,882.17253,1372.58679199219
2053,882.40908,2977.82373046875
2054,882.60329,2125.91430664063
2055,882.72424,3068.6787109375
2056,882.83013,1958.34362792969
2057,883.12054,2972.111328125
2058,883.36318,3657.44311523438
2059,883.46304,2775.26123046875
2060,883.57909,2978.51708984375
2061,883.70545,2012.30627441406
2062,883.89117,3063.3583984375
2063,884.06558,4842.5009765625
2064,884.22153,5276.0546875
2065,884.34054,4147.619140625
2066,884.42712,5383.39599609375
2067,884.62629,2199.59375
2068,884.71617,2328.19067382813
2069,884.87171,2661.87841796875
2070,885.02484,1233.40795898438
2071,885.09289,1213.30676269531
2072,885.26421,2568.43188476563
2073,885.42904,2354.87768554688
2074,885.50594,1868.14245605469
2075,885.60205,1382.51416015625
2076,885.67657,1774.00061035156
2077,885.74115,1162.05004882813
2078,885.84444,1728.00329589844
2079,885.91892,1857.92102050781
2080,885.98927,1042.66870117188
2081,886.14325,2064.26586914063
2082,886.29795,2251.63110351563
2083,886.41917,1683.26086425781
2084,886.53179,2165.05200195313
2085,886.61541,1088.17456054688
2086,886.77622,2175.92504882813
2087,886.91037,2086.59423828125
2088,887.12325,2388.79516601563
2089,887.40432,2932.71704101563
2090,887.57828,2834.6298828125
2091,887.68208,1595.90026855469
2092,887.73526,1458.06616210938
2093,887.86361,1947.04113769531
2094,887.98331,2108.44165039063
2095,888.21390,3315.4990234375
2096,888.42159,3401.9287109375
2097,888.53042,1250.42614746094
2098,888.60180,1477.83825683594
2099,888.94321,3136.125
2100,889.20649,3505.29931640625
2101,889.41791,3842.5615234375
2102,889.49585,2347.60693359375
2103,889.55237,2347.07153320313
2104,889.59241,2207.5693359375
2105,889.64966,2044.27673339844
2106,889.75993,2306.17016601563
2107,890.06750,3837.20043945313
2108,890.22856,4577.40283203125
2109,890.33262,2321.70532226563
2110,890.44497,4231.857421875
2111,890.55542,2203.46728515625
2112,890.72844,2856.91845703125
2113,890.85374,2962.810546875
2114,891.04234,2511.92626953125
2115,891.12468,2619.84643554688
2116,891.42509,5158.234375
2117,891.51854,3787.75927734375
2118,891.58271,3594.8134765625
2119,891.68824,3272.73461914063
2120,892.33748,9047.2900390625
2121,893.14104,137699.75
2122,893.43143,55599.7890625
2123,893.91686,9389.853515625
2124,894.15781,2753.16333007813
2125,894.20605,2912.66528320313
2126,894.26052,3325.4462890625
2127,894.32205,1066.48364257813
2128,894.36630,1111.46154785156
2129,894.44532,3316.490234375
2130,894.71505,6332.5009765625
2131,894.93952,5526.6025390625
2132,895.07301,2318.94677734375
2133,895.25693,2298.54418945313
2134,895.57047,4945.85888671875
2135,895.85295,4872.044921875
2136,895.94015,2058.37817382813
2137,895.99792,2887.81567382813
2138,896.08084,1636.89379882813
2139,896.15715,1133.34399414063
2140,896.39391,4157.10546875
2141,896.63291,3738.22192382813
2142,896.75131,3338.810546875
2143,896.91977,2302.41577148438
2144,897.25058,4834.4892578125
2145,897.47178,3372.73291015625
2146,897.53290,2722.39916992188
2147,897.64497,4869.58984375
2148,897.81248,3890.44018554688
2149,898.23383,16196.0419921875
2150,898.42704,12720.3076171875
2151,898.52173,7849.21875
2152,898.57345,6359.5400390625
2153,898.61514,5589.95068359375
2154,898.76574,5698.9755859375
2155,898.88485,3848.94409179688
2156,898.97447,5353.66845703125
2157,899.10574,5452.083984375
2158,899.24965,2799.17016601563
2159,899.45449,3900.47290039063
2160,899.75820,5042.87060546875
2161,899.98600,5035.28564453125
2162,900.12936,5464.57177734375
2163,900.27492,3302.27172851563
2164,900.41739,5461.12060546875
2165,900.52149,2884.8994140625
2166,900.64552,4291.333984375
2167,900.74137,4577.2353515625
2168,900.93540,3575.31982421875
2169,901.14079,3862.83764648438
2170,901.27330,4112.08642578125
2171,901.49803,4911.5224609375
2172,901.72022,2710.6689453125
2173,901.83904,2448.51489257813
2174,901.89098,2630.67358398438
2175,901.96031,2708.0322265625
2176,902.04404,2340.71899414063
2177,902.09282,2340.58251953125
2178,902.33498,4031.6201171875
2179,902.56361,2402.33911132813
2180,902.62154,2174.87963867188
2181,902.71609,2689.01196289063
2182,902.81240,1904.69812011719
2183,902.88884,1845.59753417969
2184,902.94657,2440.53076171875
2185,903.06756,4349.72216796875
2186,903.17732,3841.09350585938
2187,903.25775,3234.45141601563
2188,903.31001,3014.85009765625
2189,903.43595,4326.49560546875
2190,903.54117,3146.12646484375
2191,903.61316,2756.7890625
2192,903.67386,2517.56005859375
2193,903.75088,3086.35961914063
2194,903.84486,3029.3251953125
2195,903.95977,2882.79345703125
2196,904.03202,2173.35864257813
2197,904.12723,2673.52124023438
2198,904.40771,2953.91455078125
2199,904.67060,2328.20654296875
2200,904.80616,2099.1240234375
2201,905.06321,2538.11108398438
2202,905.27947,2817.47778320313
2203,905.42693,2057.27001953125
2204,905.54426,1850.70703125
2205,905.67780,2762.1689453125
2206,905.79687,2927.59741210938
2207,905.87607,1846.08923339844
2208,905.95477,1900.21423339844
2209,906.05512,2475.32080078125
2210,906.15273,1986.05004882813
2211,906.21294,1828.05456542969
2212,906.28127,1680.15063476563
2213,906.34020,1500.24621582031
2214,906.43608,2698.02612304688
2215,906.51940,2281.53564453125
2216,906.56433,1764.625
2217,906.62919,1538.68603515625
2218,906.75324,2449.06665039063
2219,906.92622,2312.78100585938
2220,907.12968,2031.96789550781
2221,907.29459,2193.3623046875
2222,907.43492,3952.54052734375
2223,907.53355,1884.11193847656
2224,907.58337,1771.52429199219
2225,907.96742,3717.001953125
2226,908.16648,3529.00146484375
2227,908.24552,2937.37670898438
2228,908.31164,2521.94262695313
2229,908.43405,3020.45947265625
2230,908.63388,2595.28100585938
2231,908.77874,1924.87036132813
2232,908.83913,1755.11877441406
2233,908.96743,2322.00610351563
2234,909.16478,2309.40844726563
2235,909.25383,1260.8203125
2236,909.32441,1892.57238769531
2237,909.45282,3181.03540039063
2238,909.57314,2443.17919921875
2239,909.65991,1858.65686035156
2240,909.70656,2115.76049804688
2241,909.75024,1819.36486816406
2242,909.83347,1773.23706054688
2243,909.95194,2466.04345703125
2244,910.13381,2079
2245,910.23327,1602.26306152344
2246,910.32579,1717.05346679688
2247,910.42252,2258.06372070313
2248,910.55441,2529.38891601563
2249,910.65016,2198.6796875
2250,910.74213,2501.349609375
2251,910.84281,2081.95678710938
2252,910.98299,2478.32788085938
2253,911.09472,2089.125
2254,911.17878,1946.26831054688
2255,911.43965,4551.24560546875
2256,911.56941,2148.43041992188
2257,911.73785,2876.15502929688
2258,911.94884,2301.39111328125
2259,912.15719,2381.16650390625
2260,912.28152,1596.70422363281
2261,912.33659,1986.77233886719
2262,912.44102,2501.6005859375
2263,912.51040,1716.25524902344
2264,912.63749,2375.73559570313
2265,912.73018,1674.05834960938
2266,912.80520,1601.58374023438
2267,912.94052,2464.28271484375
2268,913.03481,1500.16320800781
2269,913.09278,1554.29736328125
2270,913.15254,1743.33996582031
2271,913.35685,2137.32666015625
2272,913.59672,1846.04040527344
2273,913.69241,1852.52954101563
2274,913.81164,2045.65478515625
2275,914.03837,2665.77172851563
2276,914.21368,2120.36108398438
2277,914.31459,1446.73657226563
2278,914.42686,1602.20666503906
2279,914.51225,1294.07373046875
2280,914.63171,1472.54162597656
2281,914.81813,2153.86889648438
2282,914.93010,2050.89770507813
2283,915.01058,1426.03576660156
2284,915.11249,1589.53308105469
2285,915.18109,1425.30676269531
2286,915.28224,1615.98266601563
2287,915.46203,2671.1689453125
2288,915.54072,1256.71752929688
2289,915.61679,748.2978515625
2290,915.69582,1153.14990234375
2291,915.78547,1564.08178710938
2292,915.85802,1845
2293,915.96827,2617.94799804688
2294,916.02953,1767.04162597656
2295,916.14392,2359.78247070313
2296,916.39423,2217.10375976563
2297,916.51048,1770.4765625
2298,916.55563,2352.072265625
2299,916.64631,1988.72937011719
2300,916.72445,2032.81079101563
2301,916.77303,1704.13891601563
2302,917.03287,2469.70678710938
2303,917.19578,1512.4462890625
2304,917.45109,2276.7431640625
2305,917.64673,2214.39501953125
2306,917.74057,1783.40051269531
2307,917.93845,1900.77563476563
2308,918.04899,1424.00134277344
2309,918.09995,1589.13562011719
2310,918.17899,1137.3935546875
2311,918.29845,1913.63000488281
2312,918.45819,2256.63745117188
2313,918.54551,1392.88110351563
2314,918.58857,1276.6533203125
2315,918.84822,3289.72973632813
2316,919.01124,2340.0009765625
2317,919.13076,2138.1015625
2318,919.22957,1344.52001953125
2319,919.35116,1221.53881835938
2320,919.44228,2877.3466796875
2321,919.49173,2114.5361328125
2322,919.55423,2264.22387695313
2323,919.66361,2354.470703125
2324,919.73752,1820.76147460938
2325,919.79832,2057.74096679688
2326,919.94085,2354.16577148438
2327,920.08260,2041.26623535156
2328,920.23896,2185.28588867188
2329,920.46317,3307.00366210938
2330,920.52691,2689.71337890625
2331,920.58457,2422.48168945313
2332,920.64872,1961.19873046875
2333,920.75478,1621.19104003906
2334,920.91757,1830.00073242188
2335,921.04182,1705.04992675781
2336,921.18685,2242.61743164063
2337,921.30183,2274.88354492188
2338,921.37107,1424.16333007813
2339,921.48420,3077.77880859375
2340,921.56350,1624.408203125
2341,921.91783,4254.50634765625
2342,922.08163,3300.88720703125
2343,922.19822,2984.7685546875
2344,922.32798,2123.11108398438
2345,922.47189,2175.02075195313
2346,922.56497,1439.73376464844
2347,922.71855,1768.45593261719
2348,922.84292,1619.04345703125
2349,922.95801,1621.16528320313
2350,923.01598,1420.81176757813
2351,923.14015,1676.16809082031
2352,923.31808,1344.32751464844
2353,923.50714,2672.20654296875
2354,923.70502,2010.02062988281
2355,923.79343,1895.728515625
2356,923.90483,1734.06457519531
2357,924.02728,744.042846679688
2358,924.18969,1535.310546875
2359,924.29917,1488.890625
2360,924.44095,3021.57470703125
2361,924.53015,1435.46057128906
2362,924.63648,2350.25268554688
2363,924.91190,2317.16650390625
2364,925.09717,2680.33178710938
2365,925.19303,2325.03637695313
2366,925.31718,1797.58215332031
2367,925.45519,2261.87939453125
2368,925.67685,2889.04614257813
2369,925.77417,1822.19140625
2370,925.99846,2483.0029296875
2371,926.07414,1805.7548828125
2372,926.15204,1641.63916015625
2373,926.30708,2321.00244140625
2374,926.44810,2092.07104492188
2375,926.50507,1152.6689453125
2376,926.59655,1863.59631347656
2377,926.67217,1252.92749023438
2378,926.85785,1875.93395996094
2379,927.03947,1954.05114746094
2380,927.11404,1627.24768066406
2381,927.18672,1356.4912109375
2382,927.30372,1603.1123046875
2383,927.45513,2137.26513671875
2384,927.52093,1722.1845703125
2385,927.61951,1589.443359375
2386,927.76326,1452.55590820313
2387,927.91823,1782.54638671875
2388,928.05734,1784.95263671875
2389,928.24332,2480.75244140625
2390,928.31908,1922.69580078125
2391,928.44616,2607.63647460938
2392,928.55971,2236.39501953125
2393,928.74550,2344.6240234375
2394,928.83412,1040.09423828125
2395,928.95023,1711.0400390625
2396,929.02969,2064.73950195313
2397,929.13312,2130.25
2398,929.35924,1687.00830078125
2399,929.45727,1107.66845703125
2400,929.52842,1396.64660644531
2401,929.61579,1339.44921875
2402,929.79888,2997.88891601563
2403,929.95242,1897.5947265625
2404,930.00210,1775.2763671875
2405,930.17841,2176.15258789063
2406,930.33067,2262.4755859375
2407,930.44441,2062.47998046875
2408,930.55080,1638.00109863281
2409,930.67397,1536.12561035156
2410,930.81824,1510.03588867188
2411,930.87191,1110.92907714844
2412,930.94720,968.606323242188
2413,931.22748,2613.927734375
2414,931.45078,3155.53784179688
2415,931.54795,3051.92626953125
2416,931.62923,1283.48095703125
2417,931.73406,1975.07458496094
2418,931.88442,1913.31579589844
2419,932.03601,1528.59558105469
2420,932.13794,2981.533203125
2421,932.25301,2207.57202148438
2422,932.36207,2270.86987304688
2423,932.45996,2553.25512695313
2424,932.51488,2019.1484375
2425,932.61815,1379.056640625
2426,932.73152,2502.1416015625
2427,933.21050,5951.427734375
2428,933.44964,4501.05908203125
2429,933.55614,3036.88940429688
2430,933.63096,2792.4619140625
2431,933.68284,2312.99536132813
2432,933.76690,2278.56689453125
2433,933.90620,2379.927734375
2434,934.00374,1766.61633300781
2435,934.14545,1999.47375488281
2436,934.30991,1699.77185058594
2437,934.47002,2420.111328125
2438,934.57787,1598.79748535156
2439,934.77001,2281.92138671875
2440,934.96043,2474.34252929688
2441,935.06078,2134.31958007813
2442,935.18254,2277.2744140625
2443,935.26121,1762.36108398438
2444,935.34735,1501.83288574219
2445,935.45551,2851.6630859375
2446,935.67412,2158.25341796875
2447,935.89583,1779
2448,936.19449,2027.2890625
2449,936.30778,1461.47863769531
2450,936.43723,2459.39477539063
2451,936.59074,1905.06311035156
2452,936.75563,2589.27392578125
2453,936.94676,2322.14721679688
2454,937.08795,2379.31909179688
2455,937.23460,2329.43383789063
2456,937.44561,4061.2177734375
2457,937.57381,1945.04711914063
2458,937.65084,1162.3349609375
2459,937.81216,1987.04895019531
2460,937.97191,1740.26086425781
2461,938.05396,1191.24157714844
2462,938.24466,2486.01782226563
2463,938.51278,2453.8642578125
2464,938.73369,2771.23217773438
2465,938.83655,1614.77795410156
2466,938.87977,1775.6005859375
2467,938.93236,1813.08386230469
2468,939.03371,2444.224609375
2469,939.20202,2678.69653320313
2470,939.44435,4016.35864257813
2471,939.59925,2638.91528320313
2472,939.78142,2512.42749023438
2473,939.84549,2300.52563476563
2474,939.90074,1690.6484375
2475,940.14731,3202.283203125
2476,940.29337,3419.88110351563
2477,940.46927,2990.44409179688
2478,940.54965,2213.43798828125
2479,940.62269,2746.09814453125
2480,940.85315,3245.08276367188
2481,941.22395,3671.69555664063
2482,941.43651,4901.12841796875
2483,941.57139,4431.63916015625
2484,941.72347,7699.84326171875
2485,941.81558,5410.74072265625
2486,941.93836,4988.7216796875
2487,942.06113,3735.20434570313
2488,942.69872,95184.234375
2489,943.01970,39563.94921875
2490,943.55222,14406.1865234375
2491,943.76262,11451.3681640625
2492,943.82082,8979.6796875
2493,943.88855,7513.2197265625
2494,944.12812,6511.67138671875
2495,944.40236,9892.205078125
2496,944.61023,5411.19482421875
2497,944.67453,5632.6533203125
2498,944.72921,4642.94677734375
2499,944.78271,4742.037109375
2500,944.83988,4825.236328125
2501,944.89000,4090.37329101563
2502,945.34590,7706.25390625
2503,945.56646,5591.26708984375
2504,945.66260,5130.900390625
2505,945.71940,3733.53515625
2506,945.77717,3751.25341796875
2507,945.82436,4011.125
2508,946.04015,5457.9140625
2509,946.33619,5918.49365234375
2510,946.59131,3100.69970703125
2511,946.67634,2622.19775390625
2512,947.09790,5430.59228515625
2513,947.31672,5163.6630859375
2514,947.43925,3691.814453125
2515,947.49918,3305.68481445313
2516,947.58923,3958.92260742188
2517,948.07555,14067.0615234375
2518,948.27856,8302.306640625
2519,948.36712,5755.7529296875
2520,948.44384,5127.05126953125
2521,948.50983,4009.72998046875
2522,948.67187,3932.35595703125
2523,948.76488,2243.32641601563
2524,949.00327,4709.96826171875
2525,949.28215,3208.4453125
2526,949.34640,3629.603515625
2527,949.44501,4459.18505859375
2528,949.66080,3590.98754882813
2529,949.78626,3763.0283203125
2530,949.92147,3332.54443359375
2531,950.03737,4167.3017578125
2532,950.16068,3076.51049804688
2533,950.22177,2221.60400390625
2534,950.34609,2033.07165527344
2535,950.50134,3358.45532226563
2536,950.69267,4183.92578125
2537,950.89464,2870.78369140625
2538,951.04585,2367.7275390625
2539,951.21744,3585.48876953125
2540,951.43381,2468.28002929688
2541,951.57416,3412.51684570313
2542,951.66803,2449.10961914063
2543,951.72933,1998.86730957031
2544,951.87116,3158.61328125
2545,952.08045,2751.81762695313
2546,952.24376,2989.0166015625
2547,952.39439,2856.32592773438
2548,952.48170,4030.890625
2549,952.63401,1985.0625
2550,952.79081,1991.390625
2551,952.92648,2841.00512695313
2552,953.04723,2966.23559570313
2553,953.11174,2643.91357421875
2554,953.28612,3004.14990234375
2555,953.46030,4000.53002929688
2556,953.63647,2837.75659179688
2557,953.77522,2360.25146484375
2558,953.86864,1764.47399902344
2559,954.19805,2999.01489257813
2560,954.46616,3220.05029296875
2561,954.63854,2137.087890625
2562,955.06767,2166.302734375
2563,955.33490,1197.27502441406
2564,955.50461,2229.87646484375
2565,955.71894,2556.76147460938
2566,955.83384,3624.00073242188
2567,955.93418,1970.51123046875
2568,956.09297,2317.5078125
2569,956.17632,1672.54541015625
2570,956.28507,2477.45361328125
2571,956.47872,2341.0029296875
2572,956.61596,1512.38073730469
2573,956.80488,1615.2607421875
2574,957.01478,2398.79248046875
2575,957.11943,1599.64306640625
2576,957.31928,1673.32678222656
2577,957.44037,2206.19067382813
2578,957.60246,1852.43371582031
2579,957.71606,1756.16052246094
2580,957.79206,1724.53759765625
2581,957.86993,1637.21801757813
2582,957.96879,2002.02099609375
2583,958.05293,1336.31518554688
2584,958.22688,2490.43701171875
2585,958.29943,1774.88903808594
2586,958.47892,3310.13818359375
2587,958.67549,3160.4091796875
2588,958.76974,1265.29797363281
2589,958.83619,1226.21179199219
2590,958.96349,1916.32238769531
2591,959.06534,1776.18347167969
2592,959.14901,1515.18566894531
2593,959.31942,2170.23266601563
2594,959.47344,3841.60888671875
2595,959.62867,1710.49499511719
2596,959.76492,2168.42016601563
2597,959.86893,1568.26550292969
2598,959.98322,1782.033203125
2599,960.09152,1705.34997558594
2600,960.18391,1335.34045410156
2601,960.23625,1422.07495117188
2602,960.32368,2058.09692382813
2603,960.45076,2387.02368164063
2604,960.51290,1783.35375976563
2605,960.66311,2137.78564453125
2606,960.79277,1770.30407714844
2607,960.89881,1437.48486328125
2608,960.96349,1307.85961914063
2609,961.06884,2070.49487304688
2610,961.25602,1752.79370117188
2611,961.45790,3119.00341796875
2612,961.61505,1271.18225097656
2613,961.68495,1142.98095703125
2614,961.80328,946.539855957031
2615,961.90192,1644.12060546875
2616,961.98961,1020.97088623047
2617,962.07245,1114.28198242188
2618,962.19690,1736.69812011719
2619,962.29582,1416.77526855469
2620,962.46373,2195.0693359375
2621,962.62681,1916.25964355469
2622,962.69858,1186.42858886719
2623,962.76873,1820.69348144531
2624,962.97392,2379.6328125
2625,963.22534,1539.21118164063
2626,963.38521,2020.43005371094
2627,963.46467,2483.01416015625
2628,963.61838,1955.3818359375
2629,963.73784,1383.91369628906
2630,963.79013,1491.5458984375
2631,963.84867,1236.37060546875
2632,963.90480,1237.18017578125
2633,964.10390,1742.25573730469
2634,964.24718,1539.07495117188
2635,964.46160,2123.484375
2636,964.55440,1516.46533203125
2637,964.71341,2028.46813964844
2638,964.83869,1174.24682617188
2639,964.87720,1108.30712890625
2640,965.02946,3265.63647460938
2641,965.10140,2145.84350585938
2642,965.16869,2487.7421875
2643,965.30629,4031.291015625
2644,965.59912,1771.42956542969
2645,965.69872,1461.01635742188
2646,965.76398,2104.56201171875
2647,965.94077,2445.12768554688
2648,966.06839,1814.22668457031
2649,966.14665,1544.63134765625
2650,966.30662,1593.24645996094
2651,966.45250,1729.64074707031
2652,966.51565,1489.00256347656
2653,966.61985,1647.44458007813
2654,966.74808,1573.1904296875
2655,966.93141,1966.27270507813
2656,967.11289,2747.357421875
2657,967.24504,1263.22900390625
2658,967.32464,1606.28393554688
2659,967.46717,2168.03344726563
2660,967.68264,2384.44140625
2661,967.80221,1447.80065917969
2662,967.88333,1133.55114746094
2663,967.98041,1454.88159179688
2664,968.03997,1329.90637207031
2665,968.10817,1690.04223632813
2666,968.20089,1133.98352050781
2667,968.44771,3602.01782226563
2668,968.73212,1944.53991699219
2669,968.95730,1625.75207519531
2670,969.02907,1573.21887207031
2671,969.13187,1592.06652832031
2672,969.26392,1546.39453125
2673,969.45085,1201.3388671875
2674,969.67630,1359.572265625
2675,969.79726,1743.34533691406
2676,969.95910,2069.2802734375
2677,970.09736,1957.72937011719
2678,970.21000,1162.65649414063
2679,970.31292,1778.0283203125
2680,970.45440,2162.11840820313
2681,970.69954,1779.93994140625
2682,970.83305,1431.23461914063
2683,971.01216,2160.4482421875
2684,971.16162,1195.69689941406
2685,971.21046,857.221313476563
2686,971.31467,2038.28491210938
2687,971.46267,2644.779296875
2688,971.63857,2170.93896484375
2689,971.80855,2141.4091796875
2690,971.98230,1764.54052734375
2691,972.12871,1383.32824707031
2692,972.26327,1362.44787597656
2693,972.38636,1461.67395019531
2694,972.48044,1758.08654785156
2695,972.64897,2317.705078125
2696,972.74994,1632.22351074219
2697,972.93034,1787.00939941406
2698,973.04931,1026.16345214844
2699,973.24102,2021.13598632813
2700,973.31238,1365.43566894531
2701,973.48244,2425.1328125
2702,973.59908,1771.06127929688
2703,973.64842,1607.56494140625
2704,973.96305,2023.41735839844
2705,974.09999,1358.18920898438
2706,974.17976,1155.36743164063
2707,974.26916,1808.16052246094
2708,974.46911,2071.77954101563
2709,974.60482,1163.67907714844
2710,974.67955,1591.33374023438
2711,974.80041,974.9833984375
2712,975.03265,2138.52075195313
2713,975.11247,1981.48486328125
2714,975.22199,2550.22119140625
2715,975.35498,952.765625
2716,975.48444,1993.66796875
2717,975.74522,1917.81774902344
2718,975.86819,936.531494140625
2719,976.01102,1908.26672363281
2720,976.15807,2715.04028320313
2721,976.23663,2351.00244140625
2722,976.32026,1286.34851074219
2723,976.46226,1990.08422851563
2724,976.57437,1363.88073730469
2725,976.81904,2125.466796875
2726,976.96701,2019.20068359375
2727,977.06920,1652.93505859375
2728,977.16066,2303.11572265625
2729,977.28295,2014.79125976563
2730,977.32565,1523.26867675781
2731,977.46355,2347.28247070313
2732,977.54337,1958.33764648438
2733,977.68160,2220.98950195313
2734,977.80554,1820.27612304688
2735,977.88680,1151.33508300781
2736,978.01502,1503.11120605469
2737,978.15174,1732.22900390625
2738,978.27119,955.654357910156
2739,978.46204,1550.40295410156
2740,978.64117,1212.74157714844
2741,978.81350,1152.52197265625
2742,978.96979,1627.56518554688
2743,979.06581,1098.56384277344
2744,979.13436,1590
2745,979.17076,1186.04406738281
2746,979.25382,892.002197265625
2747,979.33368,1265.26684570313
2748,979.46833,2107.7265625
2749,979.59731,769.574401855469
2750,979.69816,837.131530761719
2751,979.82787,1445.59997558594
2752,980.01988,1445.65148925781
2753,980.27399,1592.0380859375
2754,980.51481,2418.45458984375
2755,980.70144,1897.3017578125
2756,980.77877,1139.40502929688
2757,980.85325,2209.76123046875
2758,981.14057,1827.4150390625
2759,981.34076,1567.06481933594
2760,981.41592,1433.94091796875
2761,981.51217,1734.98327636719
2762,981.60933,1400.5556640625
2763,981.66081,1359.59606933594
2764,981.76594,1364.57470703125
2765,981.95539,1294.74230957031
2766,982.04314,927.414184570313
2767,982.23459,1535.0146484375
2768,982.54510,1984.10461425781
2769,982.78984,2116.27368164063
2770,982.95915,1894.27697753906
2771,983.10733,2077.94799804688
2772,983.20455,1555.26281738281
2773,983.26357,1504.80346679688
2774,983.32295,1480.26538085938
2775,983.48189,1850.13916015625
2776,983.61465,1472.06225585938
2777,983.88323,1968.83996582031
2778,984.05002,1673.31860351563
2779,984.20155,1521.18566894531
2780,984.28850,1052.12854003906
2781,984.33637,1018.23809814453
2782,984.46521,1951.85314941406
2783,984.61513,2009.17004394531
2784,984.66916,1796.36364746094
2785,984.78482,2380.19287109375
2786,985.00470,1613.01416015625
2787,985.14434,1263.76818847656
2788,985.22544,1412.90319824219
2789,985.31479,1024.03576660156
2790,985.40353,1108.55407714844
2791,985.51064,1560.2578125
2792,985.69743,1277.35827636719
2793,985.78537,1110.63195800781
2794,985.84364,1291.85119628906
2795,986.01645,2540.21435546875
2796,986.19158,2744.00268554688
2797,986.45893,2629.67211914063
2798,986.62274,905.609985351563
2799,986.71904,1097.2216796875
2800,986.82141,1154.00061035156
2801,986.98249,2409.05151367188
2802,987.29942,2179.79028320313
2803,987.48902,1977.41284179688
2804,987.58426,936.539184570313
2805,987.82700,3284.97802734375
2806,987.96550,3067.32958984375
2807,988.06017,3827.15307617188
2808,988.11768,2419.298828125
2809,988.18392,2486.25708007813
2810,988.23102,2548.716796875
2811,988.29053,2399.2490234375
2812,988.42249,1750.20812988281
2813,988.49294,1682.32006835938
2814,988.70584,1777.79931640625
2815,988.77621,1565.84020996094
2816,988.82548,1511.9599609375
2817,988.96481,2319.98876953125
2818,989.05273,1787.01965332031
2819,989.12624,2570.22119140625
2820,989.20346,1882.99340820313
2821,989.36373,1451.20434570313
2822,989.48145,2161.1875
2823,989.57288,1270.44714355469
2824,989.73749,1129.57141113281
2825,989.86539,1334.0810546875
2826,990.15960,1807.41784667969
2827,990.44465,2378.32470703125
2828,990.66948,2175.125
2829,990.76833,1852.76806640625
2830,991.10029,3124.7861328125
2831,991.24007,2244.25146484375
2832,991.30698,1730.10461425781
2833,991.37697,1754.22814941406
2834,991.47432,3190.07763671875
2835,991.64440,2283.88940429688
2836,991.83104,1898.7421875
2837,991.93005,1573.53283691406
2838,992.02318,1653.82043457031
2839,992.13130,1437.79504394531
2840,992.27338,1464.63439941406
2841,992.49340,2147.03784179688
2842,992.59636,1231.57373046875
2843,992.76824,1370.46411132813
2844,992.86724,881.315002441406
2845,992.95335,1184.16198730469
2846,993.06376,1600.28491210938
2847,993.27883,1644.02380371094
2848,993.36508,1293.38879394531
2849,993.49240,3196.0703125
2850,993.59344,1708.0625
2851,993.64679,1867.15234375
2852,993.71723,2470.2353515625
2853,993.83558,2177.478515625
2854,993.94028,1882.1396484375
2855,994.22114,1550.40905761719
2856,994.32236,1159.08337402344
2857,994.47642,2514.5634765625
2858,994.65029,2697.03930664063
2859,994.83700,3559.12768554688
2860,995.00020,2039.67053222656
2861,995.11546,1688.2041015625
2862,995.16005,1589.48071289063
2863,995.25091,2031.63024902344
2864,995.36523,842.395385742188
2865,995.49632,2410.26049804688
2866,995.64710,2057.2607421875
2867,995.78117,1936.93249511719
2868,995.88067,1962.00024414063
2869,996.10227,2408.71484375
2870,996.28523,2836.29150390625
2871,996.48371,2757.001953125
2872,996.63845,2407.98876953125
2873,996.94210,3709.92846679688
2874,997.09687,3135.05786132813
2875,997.27854,4227.009765625
2876,997.36312,3099.59008789063
2877,997.40368,3360.87182617188
2878,997.47379,3819.02319335938
2879,997.52216,3508.3447265625
2880,998.08278,65049.125
2881,998.30683,41011.63671875
2882,998.48889,17242.818359375
2883,998.64487,8515.439453125
2884,998.71329,6727.96435546875
2885,998.76501,6675.63330078125
2886,998.84559,8502.00390625
2887,998.95225,8672.3857421875
2888,998.99754,7140.41455078125
2889,999.11221,6098.8857421875
2890,999.17724,6837.2294921875
2891,999.23602,5823.705078125
2892,999.29294,4996.81982421875
2893,999.35262,5068.84619140625
2894,999.44658,4993.19580078125
2895,999.57281,3565.6806640625
2896,999.92763,7090.0380859375
2897,1000.11305,4597.126953125
2898,1000.18587,3930.96508789063
2899,1000.25117,3273.21362304688
2900,1000.33578,3173.78857421875
2901,1000.43481,2957.32690429688
2902,1000.55999,1819.38940429688
2903,1000.70777,5044.5556640625
2904,1000.83684,4407.79931640625
2905,1001.02886,5737.7919921875
2906,1001.29201,3634.3076171875
2907,1001.36730,2874.2685546875
2908,1001.42146,3463.27172851563
2909,1001.53748,3634.66967773438
2910,1001.62858,4024.39111328125
2911,1001.72806,2626.20239257813
2912,1001.87855,4811.9794921875
2913,1002.02023,3711.6171875
2914,1002.13469,2960.78564453125
2915,1002.24168,1859.22253417969
2916,1002.28915,1740.69262695313
2917,1002.48733,3091.10034179688
2918,1002.64332,2805.0380859375
2919,1002.78737,3122.57592773438
2920,1002.94743,2601.6826171875
2921,1003.00007,2135.52075195313
2922,1003.08114,2826.19750976563
2923,1003.19058,2287.22216796875
2924,1003.23336,2359.47485351563
2925,1003.30895,2395.27075195313
2926,1003.82251,8062.447265625
2927,1004.05252,5948.14208984375
2928,1004.11181,3613.40893554688
2929,1004.17566,4020.10034179688
2930,1004.28975,3829.53149414063
2931,1004.34390,3288.19140625
2932,1004.40683,2633.98510742188
2933,1004.47889,3555.71557617188
2934,1004.67399,3150.40795898438
2935,1004.81661,2879.02099609375
2936,1004.95563,2273.53857421875
2937,1005.06794,1850.29309082031
2938,1005.25268,2399.75537109375
2939,1005.34706,1872.01013183594
2940,1005.46852,2965.3017578125
2941,1005.62039,2147.2177734375
2942,1005.80331,3151.14916992188
2943,1005.97870,1720.46313476563
2944,1006.06129,1315.19482421875
2945,1006.12308,1159.56005859375
2946,1006.27055,2176.70092773438
2947,1006.40729,2223.36962890625
2948,1006.47992,2253.001953125
2949,1006.61859,3003.80419921875
2950,1006.74222,2076.921875
2951,1006.80123,1774.49829101563
2952,1006.89319,1917.16552734375
2953,1007.01257,1464.12805175781
2954,1007.08232,1514.18395996094
2955,1007.17229,1344.56323242188
2956,1007.23016,1051.15246582031
2957,1007.30556,1691.69396972656
2958,1007.51330,2273.8310546875
2959,1007.63384,2359.08374023438
2960,1007.71185,1649.81823730469
2961,1007.85131,2240.58178710938
2962,1007.95025,1883.71594238281
2963,1008.10140,1740.40881347656
2964,1008.16765,1216.46838378906
2965,1008.25543,1579.00109863281
2966,1008.36956,1475.52807617188
2967,1008.49574,1854.00439453125
2968,1008.75603,1762.24719238281
2969,1008.90504,1347.00073242188
2970,1009.00783,1971.22180175781
2971,1009.06405,1480.85961914063
2972,1009.13540,1564.00036621094
2973,1009.45332,2964.56787109375
2974,1009.58615,1752.75634765625
2975,1009.70161,1632.23278808594
2976,1009.76690,1776.28869628906
2977,1009.83862,1844.77160644531
2978,1009.91758,2361.32666015625
2979,1009.99050,2001.20971679688
2980,1010.12245,2087.2099609375
2981,1010.23779,1136.03308105469
2982,1010.32833,1080.10974121094
2983,1010.48788,1250.009765625
2984,1010.68816,1299.31652832031
2985,1010.78328,1581.00561523438
2986,1010.96768,1364.07263183594
2987,1011.15473,2277.75146484375
2988,1011.24075,1376.064453125
2989,1011.31367,1962.07495117188
2990,1011.48835,1967.40539550781
2991,1011.56087,1774.01733398438
2992,1011.81296,1755.04846191406
2993,1011.99401,1755.30297851563
2994,1012.09288,1141.13024902344
2995,1012.25699,1187.98046875
2996,1012.53072,1783.19213867188
2997,1012.65530,1341.5
2998,1012.81885,2249.72021484375
2999,1012.98341,1745.37805175781
3000,1013.06686,1210.71130371094
3001,1013.10046,990.000854492188
3002,1013.22469,1044.31408691406
3003,1013.27715,647.983703613281
3004,1013.51136,1895.08056640625
3005,1013.80857,2052.64086914063
3006,1014.05473,2143.11254882813
3007,1014.22890,1216.30883789063
3008,1014.34016,1176.17138671875
3009,1014.47472,1479.62744140625
3010,1014.55346,1533.85852050781
3011,1014.69498,1650.04321289063
3012,1014.81191,1406.65771484375
3013,1014.98463,2008.65319824219
3014,1015.10236,1581.32373046875
3015,1015.22598,1159.54028320313
3016,1015.30081,809.946838378906
3017,1015.35957,975.626892089844
3018,1015.40604,715.12255859375
3019,1015.49339,1460.6171875
3020,1015.53770,1048.90124511719
3021,1015.65035,1096.97741699219
3022,1015.78278,999.078491210938
3023,1015.97537,1956.8818359375
3024,1016.05835,1101.43078613281
3025,1016.22415,1729.65649414063
3026,1016.33845,1276.48791503906
3027,1016.50278,1361.06652832031
3028,1016.59144,618.016540527344
3029,1016.68868,1302.02172851563
3030,1016.77031,1383.4638671875
3031,1016.81583,943.440246582031
3032,1016.88930,1107.62048339844
3033,1017.05028,1331.42199707031
3034,1017.16575,644.034790039063
3035,1017.29471,1252.78076171875
3036,1017.48030,2062.802734375
3037,1017.55257,1296.38208007813
3038,1017.60743,1141.03576660156
3039,1017.68930,799.161743164063
3040,1017.92282,1648.0634765625
3041,1018.01812,1025.56335449219
3042,1018.14302,1277.06201171875
3043,1018.24949,862.941162109375
3044,1018.39010,925.671264648438
3045,1018.51288,1702.84167480469
3046,1018.67243,679.975830078125
3047,1018.82961,1006.37420654297
3048,1018.95652,1021.79187011719
3049,1019.03025,939.964904785156
3050,1019.16833,1291.001953125
3051,1019.25398,942.320007324219
3052,1019.49784,1428.22497558594
3053,1019.66616,914.384094238281
3054,1019.79231,886.515441894531
3055,1019.89138,1039.67602539063
3056,1020.02261,1443.9599609375
3057,1020.13899,1556.7861328125
3058,1020.24837,857.098876953125
3059,1020.48568,1190.26318359375
3060,1020.63122,930.972290039063
3061,1020.72903,1430.21765136719
3062,1020.82340,1710.27844238281
3063,1020.98363,702.77783203125
3064,1021.12431,1159.61181640625
3065,1021.29504,608.601623535156
3066,1021.48207,1456.04162597656
3067,1021.55194,719.211853027344
3068,1021.66542,1437.44519042969
3069,1021.72813,981.966979980469
3070,1021.83053,940.048461914063
3071,1021.99361,1688.83996582031
3072,1022.11906,1040.18188476563
3073,1022.29935,1805.98156738281
3074,1022.41868,1114.79431152344
3075,1022.49688,1256.1201171875
3076,1022.64427,754.471435546875
3077,1022.85436,1745.38427734375
3078,1022.97117,2109.38720703125
3079,1023.15077,1219.03076171875
3080,1023.23634,1157.44921875
3081,1023.30716,2454.49951171875
3082,1023.48531,2270.27514648438
3083,1023.55656,1425.51025390625
3084,1023.66104,1366.52905273438
3085,1023.78397,1286.80004882813
3086,1023.86509,1042.51989746094
3087,1023.96967,1588.01037597656
3088,1024.08076,897.004638671875
3089,1024.16709,1663.14929199219
3090,1024.31939,1739.83679199219
3091,1024.48629,1425
3092,1024.60620,1230.58532714844
3093,1024.66435,805.22265625
3094,1024.74279,762.333312988281
3095,1024.88243,1499.70886230469
3096,1024.99166,1380.94677734375
3097,1025.13083,1490.34619140625
3098,1025.24931,1368.5986328125
3099,1025.46001,2100.12646484375
3100,1025.59245,1533.59692382813
3101,1025.68157,1199.67529296875
3102,1025.81995,1393.68017578125
3103,1025.96033,1153.04162597656
3104,1026.12015,677.049377441406
3105,1026.22797,1420.025390625
3106,1026.29919,1151.91589355469
3107,1026.37951,687.002258300781
3108,1026.51058,2183.32055664063
3109,1026.73836,1200.52941894531
3110,1026.85997,1259.12670898438
3111,1027.00702,1830.94641113281
3112,1027.07590,1122.70971679688
3113,1027.18378,1480.45227050781
3114,1027.25987,947.375
3115,1027.35458,870.264587402344
3116,1027.47862,1179.90844726563
3117,1027.97918,1415.7568359375
3118,1028.18644,1296.57690429688
3119,1028.28601,1652.12280273438
3120,1028.38344,1241.49523925781
3121,1028.51434,1833.36047363281
3122,1028.60690,947.43212890625
3123,1028.69564,874.099975585938
3124,1028.82537,1125.486328125
3125,1028.96443,707.335510253906
3126,1029.04863,981.780456542969
3127,1029.24364,937.801696777344
3128,1029.49654,1723.96508789063
3129,1029.58966,846.629028320313
3130,1029.79712,1099.55065917969
3131,1029.86999,902.450317382813
3132,1029.92279,941.713073730469
3133,1029.99480,795.898864746094
3134,1030.30669,1340.64514160156
3135,1030.40665,785.204162597656
3136,1030.50936,2565.22509765625
3137,1030.71918,984.324157714844
3138,1030.86379,736.628479003906
3139,1031.04841,1245.47717285156
3140,1031.20262,955.052307128906
3141,1031.48344,2090.53759765625
3142,1031.57902,1084.63610839844
3143,1031.72326,1054.40625
3144,1031.87458,1254.55895996094
3145,1032.01573,1186.01428222656
3146,1032.09235,572.438354492188
3147,1032.22880,606.207641601563
3148,1032.30444,377.633728027344
3149,1032.48434,1806.93896484375
3150,1032.76376,497.880249023438
3151,1032.93803,764.183166503906
3152,1032.98904,793.183837890625
3153,1033.11972,1035.55224609375
3154,1033.26076,1237.82495117188
3155,1033.36076,967.880615234375
3156,1033.49616,1310.24072265625
3157,1033.71013,1504.00036621094
3158,1033.81925,1011.93444824219
3159,1033.97066,1088.0341796875
3160,1034.14080,950.837036132813
3161,1034.21655,818.197814941406
3162,1034.31127,683.041687011719
3163,1034.47829,1319.07165527344
3164,1034.68924,1182.67907714844
3165,1034.76540,1297.56567382813
3166,1034.87033,1125.00671386719
3167,1034.97254,1163.06616210938
3168,1035.15013,1524.01818847656
3169,1035.33549,1374.5
3170,1035.54440,1225.19763183594
3171,1035.72116,999.118469238281
3172,1035.84631,822.55712890625
3173,1035.90587,724.920593261719
3174,1035.99388,802.148498535156
3175,1036.03604,829.271667480469
3176,1036.16214,1757.73840332031
3177,1036.34492,1359.66540527344
3178,1036.50082,1678.81848144531
3179,1036.58551,1352.66796875
3180,1036.65940,923.125
3181,1036.75133,838.627136230469
3182,1036.99755,2487.42602539063
3183,1037.06499,1888.06506347656
3184,1037.13474,1961.2958984375
3185,1037.22804,1364.06127929688
3186,1037.30438,1849.74816894531
3187,1037.47083,1918.01403808594
3188,1037.62255,2006.28552246094
3189,1037.72554,1296.22277832031
3190,1037.76078,1167.18383789063
3191,1037.87135,1570.4375
3192,1037.92873,948
3193,1037.99908,1236.48229980469
3194,1038.04592,1017.67468261719
3195,1038.11737,1127.52258300781
3196,1038.20714,1835.15344238281
3197,1038.29525,912.360107421875
3198,1038.38838,1619.60766601563
3199,1038.52555,1620.78967285156
3200,1038.60055,1064.40100097656
3201,1038.70849,1009.77056884766
3202,1038.82357,1164.63745117188
3203,1039.03862,1982.18408203125
3204,1039.10991,1396.09069824219
3205,1039.16809,1126.27697753906
3206,1039.50363,2198.48120117188
3207,1039.65021,741.760009765625
3208,1039.82781,1238.86157226563
3209,1039.90004,875.742980957031
3210,1040.00799,884.128112792969
3211,1040.09497,1419.49401855469
3212,1040.16624,1030.875
3213,1040.22592,1222.49523925781
3214,1040.39724,1103.14514160156
3215,1040.53032,1371.02124023438
3216,1040.65058,1264.40002441406
3217,1040.71454,776.979309082031
3218,1040.85960,1105.1005859375
3219,1041.00879,1265.63562011719
3220,1041.18241,1629.77783203125
3221,1041.26220,1019.12854003906
3222,1041.33505,958.963745117188
3223,1041.52613,1811.3271484375
3224,1041.65179,1279.88232421875
3225,1041.81808,1305.22180175781
3226,1041.96813,1439.890625
3227,1042.16624,1472.66967773438
3228,1042.30177,700.800842285156
3229,1042.48921,1948.41442871094
3230,1042.62048,1227.56103515625
3231,1042.66972,1277.21923828125
3232,1042.71424,1041.38024902344
3233,1042.83747,688.584533691406
3234,1042.92878,1098.80749511719
3235,1042.97456,1076.80004882813
3236,1043.11127,1122.05004882813
3237,1043.20095,818.387756347656
3238,1043.26761,1126.21606445313
3239,1043.46183,1390.0146484375
3240,1043.68265,940.4228515625
3241,1043.89115,1162.82312011719
3242,1044.16029,2032.83642578125
3243,1044.28817,1049.080078125
3244,1044.51906,1875.05541992188
3245,1044.68912,872.763977050781
3246,1044.81270,1010.39239501953
3247,1044.92559,832.040344238281
3248,1045.05523,676.615356445313
3249,1045.25135,1419.74572753906
3250,1045.47133,1884.06616210938
3251,1045.75111,859.877563476563
3252,1045.91320,1155.68493652344
3253,1046.00758,1556.17846679688
3254,1046.15369,972.164855957031
3255,1046.28985,568.002807617188
3256,1046.50928,1543.78393554688
3257,1046.61529,1225.56896972656
3258,1046.70356,1797.87548828125
3259,1046.80498,903.851623535156
3260,1046.86345,889.076110839844
3261,1046.97574,1056.40075683594
3262,1047.14564,1100.24487304688
3263,1047.30728,1369.16076660156
3264,1047.40408,728.228454589844
3265,1047.51252,1729.68518066406
3266,1047.69519,1611.2666015625
3267,1047.80040,1211.54418945313
3268,1047.85787,1116.00085449219
3269,1048.02478,1133.02844238281
3270,1048.16999,912.1552734375
3271,1048.25347,1729.24987792969
3272,1048.37117,1188.38806152344
3273,1048.50762,1831.3408203125
3274,1048.73280,1301.08447265625
3275,1049.03500,1504.03234863281
3276,1049.18692,1286.33801269531
3277,1049.70792,3409.16064453125
3278,1050.01192,2202.53198242188
3279,1050.11562,1070.00341796875
3280,1050.17778,1161.68481445313
3281,1050.31584,1722.17504882813
3282,1050.50817,1985.28271484375
3283,1050.64906,840.258239746094
3284,1050.75118,1416.49206542969
3285,1050.80166,1055.43139648438
3286,1050.96717,1883.16540527344
3287,1051.16311,1782.67077636719
3288,1051.33283,633.354614257813
3289,1051.52125,1765.05444335938
3290,1051.65874,1014.5
3291,1051.80582,982.818969726563
3292,1051.92831,679.411743164063
3293,1052.09118,1268.70751953125
3294,1052.18037,807.553833007813
3295,1052.33044,1073.76098632813
3296,1052.51744,1011.16241455078
3297,1052.76574,1402.67553710938
3298,1052.97939,1418.84484863281
3299,1053.34179,1691.1591796875
3300,1053.43932,911.706726074219
3301,1053.51606,1122.24877929688
3302,1053.80587,1312.64428710938
3303,1053.96262,1281.05590820313
3304,1054.03778,1140.15002441406
3305,1054.24461,1192.66271972656
3306,1054.29937,1031.29870605469
3307,1054.57312,1139.64501953125
3308,1054.73533,1094.71704101563
3309,1055.01699,1632.94152832031
3310,1055.15280,1113.88659667969
3311,1055.30103,891.551635742188
3312,1055.50812,1597.25
3313,1055.69128,1595.14831542969
3314,1055.95800,1322.03308105469
3315,1056.06890,902.038513183594
3316,1056.15499,576.514770507813
3317,1056.28063,856.088684082031
3318,1056.37574,579.193786621094
3319,1056.53280,1402.92663574219
3320,1056.63211,1346.43542480469
3321,1056.77413,2751.21533203125
3322,1056.87352,1905.8291015625
3323,1056.99442,1663.47705078125
3324,1057.17947,1171.83203125
3325,1057.27564,1092.91076660156
3326,1057.39492,1689.20092773438
3327,1057.50557,3122.58837890625
3328,1057.70884,1992.2255859375
3329,1057.86336,1480.84802246094
3330,1057.96274,2171.708984375
3331,1058.05462,1917.42407226563
3332,1058.19103,2016.98046875
3333,1058.51480,2238.33544921875
3334,1058.63813,2165.00073242188
3335,1058.75815,2451.00561523438
3336,1058.83493,1772.45043945313
3337,1058.88987,1703.33093261719
3338,1059.02907,2332.73608398438
3339,1059.15604,2339.5791015625
3340,1059.29894,2926.27124023438
3341,1059.51306,3993.18286132813
3342,1059.68396,2548.74682617188
3343,1059.74643,1681.91076660156
3344,1060.40688,62808.66796875
3345,1060.62572,35411.83984375
3346,1060.70296,28957.33203125
3347,1060.89103,9599.54296875
3348,1061.00115,6967.9140625
3349,1061.06653,6353.4091796875
3350,1061.15748,6501.37744140625
3351,1061.26468,6914.26953125
3352,1061.38077,7545.46484375
3353,1061.54363,6437.0576171875
3354,1061.69039,4474.17626953125
3355,1061.80608,2606.20654296875
3356,1061.87079,2787.59521484375
3357,1062.17509,6054.8837890625
3358,1062.34537,4432.146484375
3359,1062.45511,4118.1748046875
3360,1062.50772,4201.03662109375
3361,1062.62204,3063.98071289063
3362,1062.70541,2057.01049804688
3363,1062.82048,2093.423828125
3364,1062.91458,1573.62805175781
3365,1063.22275,3922.75244140625
3366,1063.49532,4027.18017578125
3367,1063.62880,2736.10205078125
3368,1063.68477,2203.67626953125
3369,1063.78116,2272.89306640625
3370,1063.87997,2316.56323242188
3371,1064.12444,3634.05810546875
3372,1064.31744,2163.43212890625
3373,1064.39335,2371.3671875
3374,1064.45095,2258.31591796875
3375,1064.50871,3611.43774414063
3376,1064.75404,2097.59838867188
3377,1065.16215,3213.96044921875
3378,1065.25504,2534.02807617188
3379,1065.37160,2477.00268554688
3380,1065.50820,2282.4091796875
3381,1065.57209,2567.22119140625
3382,1065.67905,2469.4453125
3383,1065.80382,2483.1943359375
3384,1065.87811,1789.00622558594
3385,1065.92391,1732.6220703125
3386,1066.00967,3114.94384765625
3387,1066.31768,4764.9033203125
3388,1066.52255,4877.185546875
3389,1066.67386,4573.21240234375
3390,1066.77318,4292.47119140625
3391,1066.92305,2568.62084960938
3392,1067.01561,1344.69189453125
3393,1067.19440,2892.48974609375
3394,1067.28415,2330.23754882813
3395,1067.39718,4058.53759765625
3396,1067.45254,2814.21459960938
3397,1067.57660,2699.53295898438
3398,1067.74357,2299.43505859375
3399,1067.82685,2125.98852539063
3400,1067.97415,1733.51220703125
3401,1068.06581,1688.39111328125
3402,1068.17663,1109.89001464844
3403,1068.29873,1592.00695800781
3404,1068.52502,2621.36010742188
3405,1068.72671,2153.58251953125
3406,1068.83557,1679.51025390625
3407,1068.94883,1903.41430664063
3408,1069.02771,1452.63439941406
3409,1069.06446,1251.74389648438
3410,1069.12693,1408.48669433594
3411,1069.46810,2383.15258789063
3412,1069.63669,1567.65344238281
3413,1069.76928,1700.55786132813
3414,1070.03568,1320.00073242188
3415,1070.18188,732.408447265625
3416,1070.26086,1483.18371582031
3417,1070.31688,1307.21240234375
3418,1070.50104,1921.16442871094
3419,1070.62237,1332.02783203125
3420,1070.71788,1676.98999023438
3421,1070.82088,1598.71594238281
3422,1070.92282,1411.34387207031
3423,1071.19299,2625.67822265625
3424,1071.28488,1743.14880371094
3425,1071.51877,2694.3115234375
3426,1071.66213,2957.28100585938
3427,1071.82548,1922.99462890625
3428,1071.89595,1931.06127929688
3429,1071.93532,1623.06713867188
3430,1072.03416,1415.72326660156
3431,1072.18799,1658.95068359375
3432,1072.50395,2959.6015625
3433,1072.68127,1485.21118164063
3434,1072.84349,1692.83715820313
3435,1073.09107,1875.98645019531
3436,1073.24938,947.145385742188
3437,1073.32817,682.04345703125
3438,1073.47661,1656.30615234375
3439,1073.63981,1496.22302246094
3440,1073.70294,1241.46948242188
3441,1073.79137,1284.04321289063
3442,1073.98440,1270.44885253906
3443,1074.19735,981.100830078125
3444,1074.48544,1794.37658691406
3445,1074.57753,1150.43249511719
3446,1074.63921,853.564086914063
3447,1074.70448,848.152648925781
3448,1074.84208,1297.572265625
3449,1075.13388,1362.77783203125
3450,1075.30697,1117.09594726563
3451,1075.51692,1389.80285644531
3452,1075.76650,1337.23156738281
3453,1075.96828,1876.390625
3454,1076.06711,1289.01196289063
3455,1076.15366,1451.69836425781
3456,1076.24867,1192.04809570313
3457,1076.34493,1440.01794433594
3458,1076.44908,1501.6181640625
3459,1076.55955,1613.76586914063
3460,1076.73010,1537.91125488281
3461,1076.86352,626.670593261719
3462,1076.99071,1312.88098144531
3463,1077.16864,1488.96215820313
3464,1077.24854,920.138061523438
3465,1077.34908,1035.05822753906
3466,1077.50367,1559.81286621094
3467,1077.58853,793.225341796875
3468,1077.77022,914.870971679688
3469,1077.87442,616.063049316406
3470,1078.01883,1674.5185546875
3471,1078.18234,1182.080078125
3472,1078.26240,914.018737792969
3473,1078.52421,1592.01049804688
3474,1078.69097,1366.75158691406
3475,1078.86641,1077.43518066406
3476,1079.01231,877.320373535156
3477,1079.16887,405.502716064453
3478,1079.25110,815.654052734375
3479,1079.55073,1665.14709472656
3480,1079.75150,1009.33331298828
3481,1079.84809,633.049865722656
3482,1080.18282,1266.03625488281
3483,1080.49454,1092.37817382813
3484,1080.75466,641.112976074219
3485,1080.86719,1454.83483886719
3486,1081.04972,1322.11584472656
3487,1081.11486,1119.76611328125
3488,1081.19446,1766.12121582031
3489,1081.26220,1177.03735351563
3490,1081.54657,1777.49377441406
3491,1081.70163,1243.01574707031
3492,1081.80529,622.438049316406
3493,1081.88311,1245.96691894531
3494,1082.06365,1280.14990234375
3495,1082.17142,1068.17456054688
3496,1082.24510,721.393676757813
3497,1082.31601,679.067199707031
3498,1082.37548,795.795104980469
3499,1082.53992,1498.10717773438
3500,1082.62721,1054.26916503906
3501,1082.78838,1218.07116699219
3502,1082.87591,573.476684570313
3503,1083.08041,794.960998535156
3504,1083.19869,1362.12084960938
3505,1083.41719,1510.64111328125
3506,1083.54490,1259.49438476563
3507,1083.71681,797.429138183594
3508,1083.87401,1194.51062011719
3509,1084.06513,1232.11840820313
3510,1084.17451,1277.27844238281
3511,1084.25721,1140.57653808594
3512,1084.34617,1117.349609375
3513,1084.52092,1368.61291503906
3514,1084.57095,1086.06286621094
3515,1084.65745,666.642333984375
3516,1084.74799,923.5
3517,1084.86427,812.031433105469
3518,1085.01106,895.367431640625
3519,1085.08585,883.913513183594
3520,1085.14155,702.397033691406
3521,1085.31014,1206.4462890625
3522,1085.50916,1033.1484375
3523,1085.59255,633.086853027344
3524,1085.63653,510.273651123047
3525,1085.71046,490.129302978516
3526,1085.77696,685.006408691406
3527,1085.85385,820.693359375
3528,1086.02436,1312.91821289063
3529,1086.21276,1104.72778320313
3530,1086.49631,1739.13037109375
3531,1086.65722,797.807189941406
3532,1086.75274,950.235046386719
3533,1086.83163,782.192016601563
3534,1086.99281,1105.60705566406
3535,1087.23947,1519.18640136719
3536,1087.33850,1045.92822265625
3537,1087.52196,1211.88159179688
3538,1087.62871,614.716552734375
3539,1087.80058,1133.43432617188
3540,1087.91253,794.432556152344
3541,1088.03348,1201.27221679688
3542,1088.17639,984.217468261719
3543,1088.23018,883.68505859375
3544,1088.35657,891.830444335938
3545,1088.53286,1836.52783203125
3546,1088.67441,837.674438476563
3547,1088.84397,1191.48486328125
3548,1089.08073,1367.77856445313
3549,1089.20241,1033.25866699219
3550,1089.52243,1676.33911132813
3551,1089.69418,718.526306152344
3552,1089.77968,720.821411132813
3553,1089.90515,500.201202392578
3554,1090.01221,884.733764648438
3555,1090.26630,917.889526367188
3556,1090.37436,850.1142578125
3557,1090.53054,1810.89624023438
3558,1090.73857,993.086975097656
3559,1090.88004,1111.26452636719
3560,1091.07940,1247.05358886719
3561,1091.16672,671.041687011719
3562,1091.28381,778.005065917969
3563,1091.53858,1434.39611816406
3564,1091.69325,855.900268554688
3565,1091.89114,620.1025390625
3566,1091.97654,544.176940917969
3567,1092.07718,853.1494140625
3568,1092.21841,911.372253417969
3569,1092.26576,513.102294921875
3570,1092.37442,884.2431640625
3571,1092.54618,1217.20458984375
3572,1092.66771,1325.02160644531
3573,1092.86526,1208.125
3574,1093.02668,821.155334472656
3575,1093.16048,869.903198242188
3576,1093.30015,750.892883300781
3577,1093.35679,729.086669921875
3578,1093.55774,1410.04077148438
3579,1093.75321,1405.92260742188
3580,1093.85846,1788.71594238281
3581,1093.93505,1394.22241210938
3582,1093.98166,1465.01147460938
3583,1094.02592,1345.63146972656
3584,1094.15805,1176.51574707031
3585,1094.25795,708.526611328125
3586,1094.31176,497.681457519531
3587,1094.51789,1593.37451171875
3588,1094.57407,1110.81823730469
3589,1094.62931,966.236999511719
3590,1094.70429,862.539184570313
3591,1094.88321,1307.09143066406
3592,1095.09862,1284.56359863281
3593,1095.36183,914.338623046875
3594,1095.52221,1443.07824707031
3595,1095.63836,1045.69287109375
3596,1095.68276,1065.51477050781
3597,1095.85366,640.03759765625
3598,1096.00449,1301.07727050781
3599,1096.25114,1325.15759277344
3600,1096.34253,1026.16650390625
3601,1096.53428,1399.14624023438
3602,1096.60208,846.355102539063
3603,1096.64669,755.260375976563
3604,1096.71611,613.223510742188
3605,1096.80663,865.6435546875
3606,1096.88456,700.185607910156
3607,1096.96405,786.266052246094
3608,1097.07196,784.328918457031
3609,1097.21404,1134.61755371094
3610,1097.32491,807.526733398438
3611,1097.44361,1028.16369628906
3612,1097.55199,1658.16003417969
3613,1097.63601,774.020446777344
3614,1097.74813,1351.38354492188
3615,1097.90988,1310.94812011719
3616,1098.02948,926.446411132813
3617,1098.19570,532.10400390625
3618,1098.39140,1021.04406738281
3619,1098.54316,1137.02319335938
3620,1098.84678,1401.38427734375
3621,1098.98336,1131.40661621094
3622,1099.37415,432.860107421875
3623,1099.53167,1268.39050292969
3624,1099.74495,1028.85070800781
3625,1099.81777,1131.13916015625
3626,1099.91765,1320.62719726563
3627,1100.03625,924.076904296875
3628,1100.17403,1167.69567871094
3629,1100.28617,1224.36462402344
3630,1100.46165,1238.38916015625
3631,1100.56757,961.080383300781
3632,1100.73459,609
3633,1100.78783,884.41796875
3634,1100.84280,703.190612792969
3635,1100.95438,1179.625
3636,1101.05757,479.45556640625
3637,1101.12688,772.574401855469
3638,1101.22035,793.30712890625
3639,1101.33002,683.661193847656
3640,1101.46376,1311.78234863281
3641,1101.76468,725.026977539063
3642,1102.00399,1258.04016113281
3643,1102.16801,811.789489746094
3644,1102.26157,674.061218261719
3645,1102.33482,890.543090820313
3646,1102.43931,978.761413574219
3647,1102.55568,1902.68896484375
3648,1102.72375,1257.23754882813
3649,1102.92353,1122.67126464844
3650,1103.06517,1376.60766601563
3651,1103.27259,436.717529296875
3652,1103.54389,801.24609375
3653,1103.65601,519.2841796875
3654,1103.99118,1180.03479003906
3655,1104.13623,1008.04412841797
3656,1104.41712,1637.19982910156
3657,1104.55095,1478.56420898438
3658,1104.66534,692.942504882813
3659,1104.87763,1146.79711914063
3660,1104.96148,728.366882324219
3661,1105.04277,1027.92590332031
3662,1105.27425,1013.75469970703
3663,1105.43880,500.662231445313
3664,1105.54387,968.651184082031
3665,1105.64728,899.943481445313
3666,1105.80529,821.254516601563
3667,1106.07566,855.111267089844
3668,1106.14286,1343.32580566406
3669,1106.26378,813.857849121094
3670,1106.32588,1023.74743652344
3671,1106.41142,843.006286621094
3672,1106.54448,1377.408203125
3673,1106.72207,730.111450195313
3674,1107.02047,1457.26770019531
3675,1107.20752,1142.42980957031
3676,1107.34837,1479.25610351563
3677,1107.55756,1352.21545410156
3678,1107.63201,952.116638183594
3679,1107.70270,802.834350585938
3680,1107.76730,581.07568359375
3681,1107.91383,651.360656738281
3682,1108.05333,914.680541992188
3683,1108.19689,1137.88232421875
3684,1108.52468,1894.78674316406
3685,1108.68272,1263.08642578125
3686,1108.85034,1031.00805664063
3687,1109.02703,1066.90844726563
3688,1109.17856,1219.03125
3689,1109.29119,989.408325195313
3690,1109.52799,1221.01574707031
3691,1109.62744,973.00341796875
3692,1109.71181,577.161987304688
3693,1109.85123,1282.29760742188
3694,1110.03823,1268.54821777344
3695,1110.26018,845.028503417969
3696,1110.52356,1196.75805664063
3697,1110.62159,927.264099121094
3698,1110.88059,1000.27612304688
3699,1111.01980,976.128051757813
3700,1111.08551,1127.34436035156
3701,1111.13742,675.324096679688
3702,1111.20091,829.256713867188
3703,1111.40980,528.019409179688
3704,1111.53102,982.96923828125
3705,1111.58739,946.453308105469
3706,1111.64614,849.081665039063
3707,1111.79156,760.066650390625
3708,1111.95055,851.001586914063
3709,1112.02691,614.775512695313
3710,1112.25188,687.000549316406
3711,1112.33266,522.571411132813
3712,1112.53533,1553.63635253906
3713,1112.65681,925.058837890625
3714,1112.76047,1060.49133300781
3715,1112.83561,604.672241210938
3716,1112.99484,851.503662109375
3717,1113.17924,628.445373535156
3718,1113.25418,789.0029296875
3719,1113.36999,897.616271972656
3720,1113.72881,1339.00146484375
3721,1113.99259,1713.86853027344
3722,1114.05126,1075.04162597656
3723,1114.10689,673.778930664063
3724,1114.36281,820.860107421875
3725,1114.52027,1011.55590820313
3726,1114.59148,1461.93359375
3727,1114.68726,600.469421386719
3728,1114.80051,674.632690429688
3729,1114.91077,1477.63110351563
3730,1115.04019,988.213012695313
3731,1115.18200,991.041687011719
3732,1115.22987,746.643127441406
3733,1115.30471,824.045104980469
3734,1115.53445,1733.32653808594
3735,1115.68902,619.941467285156
3736,1115.89142,466.281005859375
3737,1116.00508,863.408813476563
3738,1116.20678,750.149597167969
3739,1116.30342,586.337524414063
3740,1116.38718,654.707092285156
3741,1116.53486,797.014953613281
3742,1116.77065,835.4326171875
3743,1116.90056,751.858337402344
3744,1116.96305,779.351623535156
3745,1117.16120,1285.29846191406
3746,1117.27407,866.365051269531
3747,1117.39571,1170.875
3748,1117.59258,1830.40270996094
3749,1117.69561,789.778076171875
3750,1117.94236,1327.125
3751,1118.26737,1187.65795898438
3752,1118.39216,1076.79357910156
3753,1118.51870,748.398010253906
3754,1118.67636,1331.634765625
3755,1118.81751,929.447570800781
3756,1118.92858,959.312927246094
3757,1119.04453,924.871276855469
3758,1119.24384,696.927429199219
3759,1119.37340,1805.03479003906
3760,1119.59272,1481.19384765625
3761,1119.73387,2412.68090820313
3762,1119.79923,1695.05847167969
3763,1119.87254,1969.76550292969
3764,1120.08841,1034.45129394531
3765,1120.25678,1063.98815917969
3766,1120.38784,931.000427246094
3767,1120.53583,1610.71508789063
3768,1120.65656,601.93603515625
3769,1120.82437,745.32470703125
3770,1120.88820,525.063720703125
3771,1120.99965,693.093872070313
3772,1121.20804,1156.04162597656
3773,1121.30936,802.090881347656
3774,1121.52685,1270.22497558594
3775,1121.67249,1192.61596679688
3776,1121.76745,909.39111328125
3777,1121.87577,863.090576171875
3778,1122.02724,868.051147460938
3779,1122.19524,820.377502441406
3780,1122.33566,1006.95965576172
3781,1122.44601,533.086547851563
3782,1122.54342,1188.78637695313
3783,1122.66566,518.705139160156
3784,1122.81143,631.230102539063
3785,1122.90928,679.081909179688
3786,1123.10040,837.044921875
3787,1123.27055,933.112487792969
3788,1123.42027,890.004577636719
3789,1123.55812,1437.53198242188
3790,1123.63717,1522.31689453125
3791,1123.73082,1113.4306640625
3792,1124.07300,1482.91076660156
3793,1124.12854,1162.63122558594
3794,1124.17813,725.010437011719
3795,1124.27013,1159.36108398438
3796,1124.54011,1175.14392089844
3797,1124.72940,858.560974121094
3798,1124.85958,1857.59484863281
3799,1125.00713,1259.37341308594
3800,1125.17519,979.467468261719
3801,1125.27675,947.000366210938
3802,1125.31704,799.440002441406
3803,1125.37604,530.005310058594
3804,1125.54396,1294.85229492188
3805,1125.73999,1180.33032226563
3806,1125.80797,1010.21801757813
3807,1126.00239,1655.634765625
3808,1126.15762,1019.63043212891
3809,1126.34188,1470.93566894531
3810,1126.40590,1089.22692871094
3811,1126.54508,1803.42907714844
3812,1126.68749,1414.27307128906
3813,1126.76585,1215.61767578125
3814,1127.00576,1291.19738769531
3815,1127.12462,826.497192382813
3816,1127.24057,1153.17468261719
3817,1127.30996,859.699035644531
